535.0809326	3.11764717
535.085083	2.98039222
535.0897217	3.09803915
535.0897217	3.25490189
535.0932007	3.41176462
535.09729	3.05882359
535.1013794	2.43137264
535.1013794	1.78431368
535.1054688	1.80392158
535.1094971	2.01960778
535.1136475	2.29411769
535.1136475	2.21568632
535.1177368	1.90196073
535.1218262	1.49019611
535.1259766	1.27450979
535.1300049	1.56862748
535.1340942	1.90196073
535.1340942	1.88235295
535.1381836	1.74509799
535.142334	1.50980389
535.1470947	1.35294116
535.1470947	1.64705884
535.1508789	2.05882359
535.1552734	2.25490189
535.1587524	1.90196073
535.1587524	1.68627453
535.1629028	1.50980389
535.1669312	1.66666663
535.1710205	2.17647052
535.1751709	2.31372547
535.1791992	2.11764717
535.1791992	1.74509799
535.1832886	1.37254906
535.1873779	1.54901958
535.1914063	1.82352936
535.1914063	2.29411769
535.1955566	2.05882359
535.199585	1.70588231
535.2038574	1.41176474
535.2038574	1.50980389
535.2084351	1.64705884
535.2121582	1.90196073
535.2160645	1.96078432
535.2202148	1.74509799
535.2243042	1.45098042
535.2243042	1.47058821
535.2283325	1.64705884
535.2324219	2
535.2365112	2.05882359
535.2365112	1.82352936
535.2406006	1.50980389
535.244751	1.19607842
535.2488403	1.41176474
535.2488403	1.56862748
535.2528687	1.86274505
535.2571411	1.86274505
535.2612915	1.35294116
535.2658691	1.13725495
535.2694092	1.39215684
535.2694092	1.86274505
535.2740479	2.19607854
535.2776489	2
535.2816773	1.72549021
535.2816773	1.39215684
535.2857056	1.43137252
535.2897949	1.84313726
535.2938843	2.31372547
535.2938843	2.39215684
535.2979126	2.05882359
535.302063	1.78431368
535.3061523	2.0392158
535.3102417	2.39215684
535.3143311	2.78431368
535.3143311	2.64705873
535.3184204	2.33333325
535.3226929	2.07843137
535.3267822	2.19607854
535.3267822	2.52941179
535.3314209	2.88235283
535.3354492	3.13725495
535.3395996	2.9607842
535.3395996	2.68627453
535.3430786	2.37254906
535.347229	2.43137264
535.347229	2.64705873
535.3512573	2.98039222
535.3553467	3.01960778
535.359436	2.72549009
535.359436	2.39215684
535.3635254	2.21568632
535.3675537	2.31372547
535.3717041	2.45098042
535.3717041	2.78431368
535.3758545	2.7647059
535.3798828	2.50980401
535.3840942	2.21568632
535.3840942	2.13725495
535.3887329	2.33333325
535.3928833	2.62745094
535.3928833	2.90196085
535.3969116	2.66666675
535.4003906	2.37254906
535.40448	1.9803921
535.40448	2.09803915
535.4085693	2.47058821
535.4126587	2.80392146
535.4167481	2.70588231
535.4167481	2.35294127
535.4208374	2
535.4249268	1.74509799
535.4290772	1.96078432
535.4290772	2.15686274
535.4331665	2.52941179
535.4371948	2.35294127
535.4371948	2.09803915
535.4414063	1.60784316
535.4458008	1.72549021
535.4501953	1.92156863
535.4501953	2.25490189
535.4539185	2.52941179
535.458374	2.56862736
535.461853	2.45098042
535.461853	2.13725495
535.4660034	2.29411769
535.4700928	2.62745094
535.4741211	3
535.4741211	3
535.4782105	2.82352948
535.4822998	2.58823538
535.4822998	2.50980401
535.4863281	2.72549009
535.4904785	3.05882359
535.4945679	3.56862736
535.4945679	3.43137264
535.4986572	3.15686274
535.5028687	2.58823538
535.5072632	2.47058821
535.5072632	2.58823538
535.5111084	2.90196085
535.5157471	3.01960778
535.5195923	2.66666675
535.5195923	2.33333325
535.5239258	1.92156863
535.5275269	2.01960778
535.5275269	2.21568632
535.5314941	2.45098042
535.5356445	2.33333325
535.5396729	2.0392158
535.5396729	1.80392158
535.5437012	1.62745094
535.5478516	1.90196073
535.5518799	2.19607854
535.5518799	2.58823538
535.5560303	2.47058821
535.5601196	2.31372547
535.564209	2
535.5684204	2.13725495
535.5731201	2.50980401
535.5731201	2.9607842
535.5765381	2.9607842
535.5812988	2.82352948
535.5848389	2.52941179
535.5848389	2.86274505
535.5894775	3.66666675
535.5928955	4.43137264
535.5970459	4.66666651
535.5970459	4.58823538
535.6010742	4.23529434
535.6051636	3.62745094
535.6092529	2.33333325
535.6133423	2.09803915
535.6174927	1.54901958
535.6174927	1.07843137
535.621582	0.7647059
535.6256714	1.0196079
535.6297607	1.47058821
535.6297607	2
535.6339111	2.35294127
535.6380615	2.39215684
535.6427002	2.2352941
535.6427002	1.92156863
535.6467896	1.9803921
535.6503296	2.29411769
535.6543579	2.74509811
535.6585083	2.43137264
535.6625977	2.13725495
535.6625977	1.86274505
535.666626	2
535.6707153	2.27450991
535.6748047	2.66666675
535.6748047	2.43137264
535.678894	2.15686274
535.6829834	1.7647059
535.6870728	1.92156863
535.6870728	2.15686274
535.6912842	2.47058821
535.6956787	2.70588231
535.7000732	2.21568632
535.7041626	2.0392158
535.708252	2.21568632
535.708252	2.58823538
535.711731	3.11764717
535.7158814	3.13725495
535.7199097	2.86274505
535.7199097	2.68627453
535.723938	2.58823538
535.7280273	2.78431368
535.7321777	3.07843137
535.7321777	3.50980401
535.7362671	3.41176462
535.7402954	3.19607854
535.7444458	2.70588231
535.7485352	3
535.7527466	3.35294127
535.7527466	3.52941179
535.7574463	3.2352941
535.7609863	2.78431368
535.765625	2.33333325
535.765625	2.43137264
535.7697144	2.7647059
535.7731934	3.31372547
535.7772827	3.29411769
535.7772827	2.9607842
535.7813721	2.56862736
535.7854614	2.39215684
535.7894287	2.92156863
535.7935791	3.35294127
535.7977295	3.21568632
535.7977295	3.0392158
535.8018189	2.84313726
535.8059082	2.94117641
535.8101807	3.2352941
535.8101807	3.56862736
535.814148	3.70588231
535.8189087	3.60784316
535.8229981	3.39215684
535.8229981	3.15686274
535.826416	3.31372547
535.8311768	3.64705873
535.8311768	4
535.8348999	3.92156863
535.8386841	3.62745094
535.8428955	3.41176462
535.8428955	3.29411769
535.8468628	3.45098042
535.8510132	3.64705873
535.8551025	3.88235283
535.8551025	3.72549009
535.8592529	3.37254906
535.8632813	2.92156863
535.8673706	2.90196085
535.8673706	3.01960778
535.87146	3.2352941
535.8755493	3.25490189
535.8755493	2.94117641
535.8796997	2.47058821
535.8843994	1.92156863
535.8884888	1.78431368
535.8884888	1.9803921
535.8925781	2.31372547
535.8966675	2.11764717
535.9005127	1.70588231
535.9005127	1.33333337
535.9042358	1.13725495
535.9083252	1.2352941
535.9124756	1.43137252
535.9124756	1.84313726
535.9165649	1.72549021
535.9205933	1.37254906
535.9205933	1.05882359
535.9246826	1.15686274
535.928833	1.52941179
535.9328613	1.96078432
535.9328613	2
535.9369507	1.84313726
535.9411621	1.62745094
535.9453125	1.25490201
535.9453125	1.49019611
535.9497681	1.72549021
535.9540405	2.15686274
535.9581299	2.17647052
535.9581299	1.90196073
535.9619751	1.56862748
535.9656982	1.37254906
535.9656982	1.64705884
535.9697876	1.9803921
535.973877	2.31372547
535.9780273	2.27450991
535.9780273	1.90196073
535.9820557	1.41176474
535.986145	1.54901958
535.9902954	1.9803921
535.9902954	2.37254906
535.9943848	2.50980401
535.9983521	2.2352941
536.0025635	2.01960778
536.0025635	1.68627453
536.0066528	1.82352936
536.0108032	2.15686274
536.0108032	2.47058821
536.0155029	2.29411769
536.0192871	1.96078432
536.0236816	1.84313726
536.0236816	1.70588231
536.0273438	1.70588231
536.0318604	1.9803921
536.0353394	2.37254906
536.0353394	2.27450991
536.0393677	1.94117641
536.0435181	1.56862748
536.0476074	1.68627453
536.0516968	2.13725495
536.0558472	2.31372547
536.0558472	2.09803915
536.0598755	1.86274505
536.0639648	1.52941179
536.0681763	1.7647059
536.0681763	2.11764717
536.0721436	2.50980401
536.076355	2.56862736
536.0803833	2.25490189
536.0803833	1.9803921
536.0844727	1.7647059
536.088562	2
536.0929565	2.70588231
536.0967407	2.54901958
536.1008911	2.27450991
536.1008911	1.90196073
536.1049194	1.92156863
536.1090698	2.19607854
536.1132202	2.56862736
536.1132202	2.72549009
536.1172485	2.49019599
536.1220093	2.33333325
536.1260986	2.05882359
536.1260986	2
536.130188	2.27450991
536.1342163	2.88235283
536.1383667	2.58823538
536.142273	2.21568632
536.1466065	2.15686274
536.1466065	2.47058821
536.1500244	2.78431368
536.1541138	3.11764717
536.1582642	2.92156863
536.1582642	2.64705873
536.1622925	2.2352941
536.1663208	2.37254906
536.1705322	2.60784316
536.1705322	3.0392158
536.1746216	3.17647052
536.1787109	2.98039222
536.1828003	2.43137264
536.1868286	2.54901958
536.1912231	2.74509811
536.1912231	3.15686274
536.1953735	3.05882359
536.1998291	2.86274505
536.2034302	2.49019599
536.2034302	2.43137264
536.2080078	2.47058821
536.2114258	2.66666675
536.2156372	2.92156863
536.2156372	2.7647059
536.2196655	2.45098042
536.2236939	2.01960778
536.2278442	2.31372547
536.2319336	2.74509811
536.236023	2.98039222
536.236023	2.7647059
536.2401123	2.54901958
536.2442627	2.17647052
536.248291	2.2352941
536.248291	2.41176462
536.2525024	2.74509811
536.2571411	2.68627453
536.2606812	2.39215684
536.2606812	2.09803915
536.2653198	1.94117641
536.2694702	2.11764717
536.2735596	2.68627453
536.2770386	2.52941179
536.281189	2.31372547
536.281189	1.9803921
536.2852173	1.92156863
536.2893066	2.17647052
536.293396	2.56862736
536.293396	2.86274505
536.2974243	2.56862736
536.3015137	2.43137264
536.3057251	2.05882359
536.3057251	2.29411769
536.3099365	2.58823538
536.3138428	3.05882359
536.3138428	3.0392158
536.3180542	2.80392146
536.3226929	2.58823538
536.3262329	2.49019599
536.3262329	2.94117641
536.3308716	3.39215684
536.335022	4
536.3391113	4.23529434
536.3391113	4.23529434
536.3425293	4.07843161
536.3466187	3.88235283
536.350708	3.7647059
536.350708	3.35294127
536.3548584	2.58823538
536.3589478	1.70588231
536.3589478	1.19607842
536.3630371	0.82352942
536.3670654	1.0196079
536.3711548	1.37254906
536.3711548	1.9803921
536.3753052	2.29411769
536.3794556	2.2352941
536.3837891	2.27450991
536.3837891	2.2352941
536.3879395	2.47058821
536.392395	2.72549009
536.3963623	3.17647052
536.3963623	2.98039222
536.4005127	2.62745094
536.4040527	2.21568632
536.4040527	2.17647052
536.4080811	2.35294127
536.4122315	2.72549009
536.4162598	2.72549009
536.4162598	2.35294127
536.4203491	1.9803921
536.4244385	1.60784316
536.4285278	1.68627453
536.4285278	1.90196073
536.4326782	2.31372547
536.4367065	2.33333325
536.4408569	2.11764717
536.4408569	1.78431368
536.4450073	1.66666663
536.4491577	1.90196073
536.4491577	2.2352941
536.4537964	2.7647059
536.4578857	2.68627453
536.461792	2.45098042
536.461792	2.27450991
536.4654541	2.29411769
536.4696045	2.68627453
536.4736939	3.17647052
536.4736939	3.43137264
536.4777832	3.19607854
536.4818115	2.98039222
536.4859009	2.62745094
536.4859009	2.82352948
536.4899902	3.13725495
536.4941406	3.47058821
536.4941406	3.52941179
536.49823	3.25490189
536.5022583	3.05882359
536.5064697	2.90196085
536.5064697	3.13725495
536.5107422	3.31372547
536.5152588	3.60784316
536.5193481	3.39215684
536.5193481	3.13725495
536.5232544	2.64705873
536.5271606	2.72549009
536.5310059	3.52941179
536.5350342	3.56862736
536.5391846	3.35294127
536.5391846	3.11764717
536.5432739	2.84313726
536.5473633	3.0392158
536.5514526	3.39215684
536.5514526	3.82352948
536.555542	3.7647059
536.5596314	3.58823538
536.5637207	3.21568632
536.5637207	3.17647052
536.5678101	3.50980401
536.5720215	3.7647059
536.5760498	3.86274505
536.5807495	3.66666675
536.5848999	3.35294127
536.5848999	3.27450991
536.5883789	3.60784316
536.5924072	4
536.5966187	4.03921556
536.5966187	3.74509811
536.6005859	3.43137264
536.6046753	3.05882359
536.6088867	3.11764717
536.6088867	3.19607854
536.6129761	3.58823538
536.6170044	3.50980401
536.6210938	2.41176462
536.6251221	2.09803915
536.6292725	2.19607854
536.6292725	2.54901958
536.6333008	2.94117641
536.6375732	2.52941179
536.642273	2.07843137
536.642273	1.78431368
536.6463013	1.84313726
536.6502075	2.05882359
536.6538696	2.47058821
536.6538696	2.50980401
536.65802	2.13725495
536.6621704	1.82352936
536.6661987	1.50980389
536.670166	1.60784316
536.6743164	1.94117641
536.6743164	1.84313726
536.6784668	1.41176474
536.6824951	0.98039216
536.6866455	0.80392158
536.6866455	1
536.6906738	1.27450979
536.6949463	1.56862748
536.6994019	1.41176474
536.6994019	1.2352941
536.7036743	0.90196079
536.7075806	0.98039216
536.7116089	1.92156863
536.715332	2.11764717
536.7194824	1.94117641
536.7194824	1.64705884
536.7235718	1.54901958
536.7276611	1.74509799
536.7316895	2.09803915
536.7316895	2.52941179
536.7358398	2.7647059
536.7398682	2.49019599
536.7439575	2.21568632
536.7439575	2.21568632
536.7481079	2.43137264
536.7521362	2.74509811
536.7563477	2.86274505
536.7604981	2.52941179
536.7651367	2.35294127
536.7651367	2.27450991
536.7692261	2.41176462
536.7733154	2.72549009
536.7769775	2.7647059
536.7769775	2.45098042
536.7808838	2
536.7849731	1.62745094
536.7890625	1.82352936
536.7890625	2.01960778
536.7931519	2.31372547
536.7972412	2.31372547
536.7972412	1.9803921
536.8013306	1.72549021
536.8054199	1.7647059
536.8095703	2.13725495
536.8095703	2.45098042
536.8135986	2.64705873
536.817688	2.47058821
536.8220215	2.17647052
536.8220215	1.80392158
536.8261108	1.84313726
536.8306274	2.13725495
536.8341675	2.54901958
536.8341675	2.74509811
536.8388672	2.60784316
536.8422852	2.35294127
536.8422852	2.07843137
536.8464356	2.07843137
536.8504639	2.43137264
536.8546143	2.94117641
536.8546143	2.88235283
536.8587036	2.52941179
536.8627319	2.09803915
536.8668213	2
536.8668213	2.21568632
536.8709717	2.62745094
536.875	2.94117641
536.8791504	2.66666675
536.8791504	2.43137264
536.8832398	2.17647052
536.8875122	2.41176462
536.8875122	2.70588231
536.8919678	3.17647052
536.8961792	3.39215684
536.9002686	3.29411769
536.9002686	3.01960778
536.904419	2.84313726
536.9078369	3.19607854
536.9119873	3.47058821
536.9119873	3.86274505
536.9160767	3.86274505
536.920105	3.50980401
536.9241943	3.25490189
536.9241943	3.17647052
536.9282837	3.47058821
536.9323731	3.70588231
536.9323731	3.80392146
536.9364624	3.47058821
536.9406128	3
536.9447022	2.50980401
536.9447022	2.52941179
536.9489136	2.7647059
536.9535523	3.17647052
536.9576416	3.13725495
536.9576416	2.74509811
536.9614258	2.31372547
536.9658203	2.19607854
536.9699707	2.27450991
536.9699707	2.49019599
536.9733887	2.9607842
536.977478	3
536.977478	2.66666675
536.9815674	2.29411769
536.9856567	2.2352941
536.9898071	2.7647059
536.9898071	3.27450991
536.9938965	3.49019599
536.9978638	3.15686274
537.0020752	2.90196085
537.0020752	2.64705873
537.0061035	2.80392146
537.0102539	2.94117641
537.0144043	3.50980401
537.0185547	3.64705873
537.0231934	3.66666675
537.0231934	3.58823538
537.0267944	3.9607842
537.0313721	4.41176462
537.0355225	4.56862736
537.0355225	4.07843161
537.0389404	2.9607842
537.0432129	1.62745094
537.0471191	0.82352942
537.0471191	0.68627453
537.0512085	0.88235295
537.0552979	1.09803927
537.0593872	0.86274511
537.0634766	0.68627453
537.067688	1.0196079
537.067688	1.50980389
537.0717163	2.13725495
537.0758667	2.39215684
537.0799561	2.21568632
537.0799561	2
537.0840454	1.90196073
537.0880127	2.27450991
537.0922241	2.54901958
537.0922241	3
537.0969238	3
537.1004028	2.88235283
537.1044312	2.50980401
537.1085205	2.68627453
537.1126709	3.01960778
537.1126709	3.39215684
537.1173096	3.2352941
537.12146	2.9607842
537.1255493	2.74509811
537.1255493	2.90196085
537.1296387	3.21568632
537.1337891	3.58823538
537.1378784	3.60784316
537.1378784	3.49019599
537.1419678	3.25490189
537.1461182	3.0392158
537.1495361	3.50980401
537.1536255	3.9607842
537.1577759	3.84313726
537.1577759	3.60784316
537.1618042	3.37254906
537.1658936	3.41176462
537.1699829	3.64705873
537.1699829	3.90196085
537.1740723	4.07843161
537.1781616	4.03921556
537.182312	3.84313726
537.182312	3.58823538
537.1863403	3.72549009
537.1905518	4.17647076
537.1950073	4.64705896
537.1993408	4.50980377
537.2034912	4.31372547
537.2034912	4.1960783
537.2075195	4.37254906
537.2113037	4.74509811
537.2150879	4.98039198
537.2150879	4.88235283
537.2191773	4.64705896
537.2232666	4.31372547
537.227356	4.35294104
537.227356	4.50980377
537.2314453	4.88235283
537.2355347	4.98039198
537.239624	4.68627453
537.2437134	4.35294104
537.2478027	4.56862736
537.2478027	4.76470566
537.2518921	4.98039198
537.2560425	4.98039198
537.2602539	4.92156839
537.2602539	4.70588255
537.2648926	4.50980377
537.2687378	4.8039217
537.2730713	4.98039198
537.2730713	4.98039198
537.2766724	4.98039198
537.2806397	4.72549009
537.2806397	4.35294104
537.28479	4.31372547
537.2888794	4.43137264
537.2929688	4.64705896
537.2929688	4.72549009
537.296936	4.47058821
537.3010254	4.07843161
537.3052368	3.52941179
537.3052368	3.58823538
537.3095093	3.7647059
537.3133545	4
537.3175659	3.84313726
537.3175659	3.64705873
537.3220215	3.37254906
537.3259888	3.19607854
537.3259888	3.27450991
537.3304443	3.49019599
537.3344727	3.78431368
537.3386231	3.70588231
537.3386231	3.35294127
537.342041	2.94117641
537.3461914	2.82352948
537.3502808	3.13725495
537.3502808	3.41176462
537.3543701	3.54901958
537.3583984	3.27450991
537.3625488	3.09803915
537.3625488	2.72549009
537.3666382	2.66666675
537.3707275	2.86274505
537.3707275	3.17647052
537.3748169	3.09803915
537.3789673	2.94117641
537.3829956	2.58823538
537.3829956	2.27450991
537.3876343	2.39215684
537.3918457	2.62745094
537.3959961	2.90196085
537.3959961	2.66666675
537.3994141	2.33333325
537.4035034	1.80392158
537.4077148	1.84313726
537.4077148	1.9803921
537.4117432	2.27450991
537.4158325	2.43137264
537.4158325	2.19607854
537.4198608	2.07843137
537.4239502	1.80392158
537.4281006	1.68627453
537.4281006	1.88235295
537.4321289	2.33333325
537.4362183	2.2352941
537.4404907	1.96078432
537.4404907	1.78431368
537.4445801	1.66666663
537.4491577	1.90196073
537.4533081	2.15686274
537.4533081	2.52941179
537.4573975	2.45098042
537.4611816	2.31372547
537.4611816	1.96078432
537.4655762	1.82352936
537.4696655	2
537.4731445	2.47058821
537.4731445	2.78431368
537.4772339	2.50980401
537.4813232	2.17647052
537.4854736	1.90196073
537.4854736	2.09803915
537.489502	2.47058821
537.4935913	2.82352948
537.4976807	2.31372547
537.5018311	2.11764717
537.5059204	2.01960778
537.5059204	2.17647052
537.5100098	2.33333325
537.5141602	2.50980401
537.5188599	2.31372547
537.5188599	1.96078432
537.5229492	1.80392158
537.5266113	1.80392158
537.5306397	1.94117641
537.5306397	2.25490189
537.5352173	2.27450991
537.5386963	2.05882359
537.5429688	1.50980389
537.546875	1.54901958
537.5509644	1.7647059
537.5509644	2.17647052
537.5550537	2.09803915
537.5591431	1.78431368
537.5632324	1.54901958
537.5632324	1.49019611
537.5673218	1.66666663
537.5714111	1.92156863
537.5755615	2.31372547
537.5755615	2.07843137
537.579773	1.7647059
537.5843506	1.43137252
537.5878296	1.70588231
537.59198	2.05882359
537.5961304	2.27450991
537.5961304	2.09803915
537.6000977	1.96078432
537.604187	1.64705884
537.6083374	1.7647059
537.6083374	2.07843137
537.6124268	2.47058821
537.6164551	2.41176462
537.6206055	2.25490189
537.6206055	1.9803921
537.6246948	1.7647059
537.6289673	1.9803921
537.6334839	2.74509811
537.6376343	2.62745094
537.6417847	2.27450991
537.6417847	1.86274505
537.645813	1.74509799
537.6499634	1.96078432
537.6533814	2.29411769
537.6533814	2.43137264
537.6574707	2.2352941
537.6615601	1.82352936
537.6657105	1.54901958
537.6657105	1.60784316
537.6696777	1.86274505
537.6738281	2.17647052
537.6779175	1.80392158
537.6820068	1.47058821
537.6861572	1.17647064
537.6861572	1.2352941
537.6902466	1.52941179
537.694397	1.86274505
537.6990356	1.64705884
537.6990356	1.27450979
537.703186	0.90196079
537.7072754	0.84313726
537.7111206	1.03921568
537.7111206	1.27450979
537.7155151	1.47058821
537.7189331	1.29411769
537.7230225	0.78431374
537.7271118	1.0196079
537.7312012	1.54901958
537.7312012	2.2352941
537.7352905	2.47058821
537.7393799	2.43137264
537.7435303	1.82352936
537.7435303	1.13725495
537.7475586	0.47058824
537.751648	0
537.7558594	0
537.7558594	0
537.7600098	0
537.7641602	0
537.7687378	0
537.772522	0.05882353
537.7763062	0
537.7763062	0
537.7803955	0
537.7844238	0
537.7885742	0
537.7885742	0.01960784
537.7926636	0.37254903
537.7967529	0.49019608
537.8008423	0.19607843
537.8008423	0
537.8048706	0.01960784
537.809082	0.23529412
537.809082	0.49019608
537.8131714	0.92156863
537.8171997	1.0196079
537.8214111	0.82352942
537.8214111	0.4509804
537.8258057	0.52941179
537.8301392	0.88235295
537.8342896	1.35294116
537.8342896	1.56862748
537.8379517	1.43137252
537.841919	1.27450979
537.8459473	0.84313726
537.8459473	1.0196079
537.8500366	1.41176474
537.854126	1.90196073
537.854126	1.96078432
537.8581543	1.66666663
537.8622437	1.31372547
537.866394	1.17647064
537.866394	1.47058821
537.8704224	1.66666663
537.8745117	2.09803915
537.8787842	1.9803921
537.8787842	1.7647059
537.8831787	1.45098042
537.8870239	1.39215684
537.8910523	1.70588231
537.8910523	2.39215684
537.8955078	2.54901958
537.8998413	2.33333325
537.8998413	2.15686274
537.9032593	1.92156863
537.9074097	2.0392158
537.9115601	2.29411769
537.9115601	2.82352948
537.9155273	2.90196085
537.9196167	2.58823538
537.9237671	2.31372547
537.9237671	2.2352941
537.9278565	2.37254906
537.9318848	2.64705873
537.9360352	2.9607842
537.9360352	2.88235283
537.9401245	2.62745094
537.9443359	2.31372547
537.9443359	2.2352941
537.9489746	2.45098042
537.953064	2.88235283
537.9571533	3.15686274
537.9571533	3.13725495
537.9609375	2.98039222
537.965332	2.70588231
537.9688721	2.78431368
537.9688721	3.11764717
537.9729004	3.80392146
537.9770508	4.01960802
537.9811401	3.47058821
537.9851685	3.17647052
537.9892578	3.41176462
537.9892578	3.86274505
537.9933472	4.35294104
537.9974976	4.17647076
538.001648	3.68627453
538.001648	3.15686274
538.0056763	3.13725495
538.0098877	3.25490189
538.013916	3.56862736
538.013916	3.70588231
538.0178833	3.27450991
538.0221558	2.7647059
538.0261841	2.15686274
538.0309448	2.29411769
538.0349731	2.68627453
538.0349731	2.58823538
538.0385132	2.17647052
538.0426636	1.60784316
538.0467529	1.21568632
538.0467529	1.43137252
538.0507202	1.62745094
538.0548706	1.92156863
538.05896	1.78431368
538.05896	1.54901958
538.0629883	1.05882359
538.0671387	0.92156863
538.0712891	1.56862748
538.0752564	1.84313726
538.0794067	1.68627453
538.0794067	1.39215684
538.0834961	1.11764705
538.0875244	1.27450979
538.0918579	1.52941179
538.0918579	2
538.0958862	2.07843137
538.1005249	1.78431368
538.1040039	1.35294116
538.1040039	1.31372547
538.1080933	1.50980389
538.1121826	1.80392158
538.116272	2.19607854
538.1203613	1.90196073
538.1245117	1.43137252
538.1245117	1.47058821
538.12854	1.7647059
538.1326294	2.17647052
538.1367188	2.47058821
538.1367188	2.39215684
538.1408081	2.17647052
538.1450195	1.72549021
538.1491699	1.92156863
538.1491699	2.33333325
538.1538086	2.7647059
538.1577148	2.74509811
538.1619263	2.13725495
538.1657105	1.88235295
538.170166	2.09803915
538.170166	2.43137264
538.1737671	2.88235283
538.1776733	2.68627453
538.1818848	2.27450991
538.1818848	1.82352936
538.1859131	1.80392158
538.1900024	2
538.1940918	2.50980401
538.1940918	2.64705873
538.1981812	2.33333325
538.2022705	1.9803921
538.2063599	1.50980389
538.2104492	1.68627453
538.2146606	2.19607854
538.2146606	2.25490189
538.2189331	1.92156863
538.2232666	1.58823526
538.2270508	1.35294116
538.2270508	1.41176474
538.2315064	1.74509799
538.2357178	2.13725495
538.2391968	2.05882359
538.2391968	1.78431368
538.2432861	1.43137252
538.2473755	1.41176474
538.2515259	2.2352941
538.2555542	2.45098042
538.2596436	2.31372547
538.2596436	2.01960778
538.2636719	1.78431368
538.2678223	1.92156863
538.2719116	2.27450991
538.2719116	2.74509811
538.2761231	2.7647059
538.2801514	2.50980401
538.2848511	2.01960778
538.2848511	1.88235295
538.2883301	2.09803915
538.2925415	2.43137264
538.2925415	2.88235283
538.2965088	2.86274505
538.3005981	2.60784316
538.3046265	2.15686274
538.3046265	2.21568632
538.3088989	2.54901958
538.3129273	2.98039222
538.3169556	3.07843137
538.3169556	2.92156863
538.321106	2.60784316
538.3251953	2.31372547
538.3294067	2.31372547
538.3294067	2.66666675
538.3337402	2.98039222
538.3376465	3
538.3376465	2.72549009
538.3422241	2.31372547
538.3461914	2.0392158
538.3504028	2.05882359
538.3504028	2.39215684
538.3542481	2.72549009
538.3586426	2.62745094
538.3621826	2.45098042
538.3621826	1.92156863
538.3661499	1.70588231
538.3702393	1.9803921
538.3743897	2.49019599
538.3743897	2.62745094
538.378479	2.33333325
538.3825073	2.07843137
538.3825073	1.66666663
538.3865967	1.68627453
538.390686	1.82352936
538.3948364	2.25490189
538.3948364	2.35294127
538.3988648	2.01960778
538.4029541	1.64705884
538.4071655	1.43137252
538.4071655	1.60784316
538.4116821	2.05882359
538.4159546	2.58823538
538.4199829	2.43137264
538.4199829	2
538.4241333	1.58823526
538.4276733	1.64705884
538.4276733	1.94117641
538.4316406	2.37254906
538.4358521	2.47058821
538.4398804	2.27450991
538.4398804	1.96078432
538.4439697	1.66666663
538.4480591	1.70588231
538.4521484	2.01960778
538.4521484	2.60784316
538.4562378	2.70588231
538.4603272	2.60784316
538.4644165	2.92156863
538.4686279	3.54901958
538.4731445	4.09803915
538.4731445	4.62745094
538.4768066	4.33333349
538.480835	3.72549009
538.4849243	2.58823538
538.4849243	1.68627453
538.4890747	1.41176474
538.493103	1.66666663
538.4972534	1.96078432
538.4972534	1.90196073
538.5012817	2
538.5054321	1.94117641
538.5095215	2.74509811
538.5135498	3.29411769
538.5178223	3.43137264
538.5178223	3.25490189
538.5222168	2.86274505
538.526001	2.58823538
538.5302124	2.74509811
538.5302124	3.07843137
538.534729	3.31372547
538.538269	3.09803915
538.5422974	2.72549009
538.5422974	2.15686274
538.5463867	2.07843137
538.5505371	2.33333325
538.5545654	3.21568632
538.5586548	3.09803915
538.5627441	2.7647059
538.5627441	2.33333325
538.5668335	2.27450991
538.5708618	2.56862736
538.5750732	3.13725495
538.5750732	3.21568632
538.5791016	2.88235283
538.583313	2.35294127
538.5877075	2.11764717
538.5877075	2.37254906
538.5921631	2.7647059
538.5959473	3.2352941
538.6002808	2.72549009
538.6037598	2.29411769
538.6078491	2.2352941
538.6078491	2.52941179
538.6119385	2.94117641
538.6160278	3.07843137
538.6201172	2.88235283
538.6201172	2.64705873
538.6242065	2.31372547
538.6282959	2.47058821
538.6323853	2.7647059
538.6323853	3.27450991
538.6364136	3.37254906
538.640564	3.15686274
538.6446533	2.72549009
538.6490479	2.80392146
538.6532593	3.19607854
538.6532593	3.80392146
538.6576538	3.74509811
538.661499	3.39215684
538.6658325	3
538.6658325	3.11764717
538.6696167	3.33333325
538.6740112	3.80392146
538.6774902	4.07843161
538.6774902	3.70588231
538.6815186	3.33333325
538.685669	3.15686274
538.6897583	3.31372547
538.6938477	3.7647059
538.697937	3.82352948
538.697937	3.49019599
538.7020264	2.9607842
538.7061157	2.86274505
538.7102661	3.05882359
538.7102661	3.25490189
538.7142944	3.62745094
538.7185059	3.62745094
538.7230225	3.27450991
538.7230225	2.7647059
538.7268677	2.7647059
538.7313232	3.01960778
538.7354736	3.43137264
538.739563	3.07843137
538.743103	2.64705873
538.743103	2.19607854
538.7471314	2.25490189
538.7512207	2.43137264
538.7553101	2.92156863
538.7553101	2.88235283
538.7593384	2.50980401
538.7634277	2
538.7676392	1.80392158
538.7676392	1.84313726
538.7716065	2.09803915
538.7758789	2.37254906
538.7758789	2.17647052
538.7798462	1.88235295
538.7840576	1.33333337
538.7887573	1.27450979
538.7887573	1.43137252
538.7922363	1.94117641
538.796814	2.11764717
538.8010254	1.88235295
538.8010254	1.29411769
538.8048706	0.98039216
538.8085938	1.05882359
538.8126831	1.33333337
538.8126831	1.7647059
538.8167725	1.68627453
538.8208618	1.56862748
538.8208618	0.98039216
538.8250122	0.86274511
538.8289795	1.25490201
538.8331299	1.54901958
538.8331299	1.86274505
538.8371582	1.92156863
538.8413086	1.60784316
538.845398	1.11764705
538.845398	1.15686274
538.8496094	1.50980389
538.8540039	2.11764717
538.8584595	2.25490189
538.8584595	2.05882359
538.8622437	1.82352936
538.8665772	1.54901958
538.8665772	1.78431368
538.8706055	2.11764717
538.8740845	2.50980401
538.8782349	2.60784316
538.8782349	2.45098042
538.8823242	1.9803921
538.8864136	1.78431368
538.8904419	1.88235295
538.8904419	2.33333325
538.8945313	2.82352948
538.8986206	2.74509811
538.902771	2.49019599
538.902771	1.94117641
538.9067993	1.88235295
538.9109497	2.11764717
538.9109497	2.62745094
538.9151001	2.68627453
538.9194946	2.49019599
538.9238892	2.07843137
538.9238892	1.74509799
538.9273682	1.88235295
538.9314575	2.25490189
538.9356079	2.58823538
538.9356079	2.52941179
538.9396362	2.17647052
538.9437866	1.52941179
538.9478149	1.43137252
538.9519043	1.84313726
538.9560547	2.19607854
538.9560547	2.0392158
538.960144	1.64705884
538.9641724	1.11764705
538.9683228	1.15686274
538.9683228	1.54901958
538.9724731	1.94117641
538.9766846	1.9803921
538.9812622	1.78431368
538.9812622	1.39215684
538.9853516	0.98039216
538.989502	1.21568632
538.9929199	2.21568632
538.9969482	2.21568632
539.0010986	1.90196073
539.0010986	1.52941179
539.005127	1.37254906
539.0093384	1.60784316
539.0133667	2.09803915
539.0133667	2.50980401
539.0174561	2.45098042
539.0215454	2.29411769
539.0256958	1.90196073
539.0256958	1.90196073
539.0297241	2.15686274
539.0338135	2.66666675
539.0380249	2.70588231
539.0421753	2.39215684
539.046814	2.13725495
539.046814	2.17647052
539.0509033	2.39215684
539.0547485	2.78431368
539.0584717	2.70588231
539.0584717	2.33333325
539.062561	1.80392158
539.0665894	1.62745094
539.0707398	1.80392158
539.0707398	2.21568632
539.0750122	2.56862736
539.0789795	2.37254906
539.0829468	1.39215684
539.0870361	1.29411769
539.0911865	1.39215684
539.0911865	1.78431368
539.0952759	1.84313726
539.0994263	1.72549021
539.1035767	1.41176474
539.1035767	1.15686274
539.107605	1.33333337
539.1117554	1.56862748
539.1158447	2.09803915
539.1158447	1.96078432
539.1198731	1.80392158
539.1239624	1.50980389
539.1281128	1.60784316
539.1322022	2.17647052
539.1362915	2.58823538
539.1362915	2.43137264
539.1403198	2.21568632
539.1444092	1.66666663
539.1484985	1.62745094
539.1484985	1.92156863
539.1526489	2.49019599
539.1566773	2.62745094
539.1609497	2.49019599
539.1609497	2.13725495
539.1655884	1.74509799
539.1696167	1.88235295
539.1737671	2.70588231
539.1776733	2.56862736
539.1820068	2.19607854
539.1820068	1.7647059
539.1854248	1.66666663
539.1895142	1.90196073
539.1937256	2.41176462
539.1937256	2.92156863
539.1976929	2.86274505
539.2018433	2.82352948
539.2059326	2.80392146
539.2059326	3.17647052
539.2099609	3.70588231
539.2140503	4.25490189
539.2182007	3.31372547
539.22229	2.11764717
539.2265625	1.03921568
539.2265625	0.56862748
539.2311401	0.54901963
539.2352295	0.98039216
539.2393189	1.17647064
539.2393189	1.11764705
539.2427979	0.92156863
539.2474976	1
539.2509766	1.33333337
539.2509766	1.92156863
539.2550659	2.49019599
539.2591553	2.29411769
539.2591553	2.05882359
539.2632446	1.52941179
539.267273	1.56862748
539.2714233	1.70588231
539.2714233	2.27450991
539.2755737	2.39215684
539.279541	2.17647052
539.2837524	1.7647059
539.2837524	1.45098042
539.2878418	1.60784316
539.2919922	1.80392158
539.2963257	2.2352941
539.2963257	2.37254906
539.3007813	2.21568632
539.3048706	1.80392158
539.3048706	1.74509799
539.3087769	2.0392158
539.312439	2.37254906
539.3165283	2.66666675
539.3165283	2.60784316
539.3206177	2.52941179
539.324707	2.17647052
539.3288574	2.11764717
539.3288574	2.45098042
539.3328247	3.07843137
539.3369751	3.27450991
539.3413696	2.94117641
539.3413696	2.49019599
539.3451538	2.19607854
539.3493042	2.39215684
539.3493042	2.60784316
539.3532715	2.92156863
539.357544	2.88235283
539.3622437	2.58823538
539.3622437	2.09803915
539.3660278	2
539.3704224	2.11764717
539.3739014	2.54901958
539.3739014	2.86274505
539.3779907	2.7647059
539.3820801	2.56862736
539.3862305	2.17647052
539.3862305	2.19607854
539.3901978	2.49019599
539.3943481	3.13725495
539.3943481	3.33333325
539.3983765	3.15686274
539.4024658	2.90196085
539.4066162	2.58823538
539.4066162	2.74509811
539.4107056	3.07843137
539.414917	3.56862736
539.4192505	3.49019599
539.4192505	3.15686274
539.423645	2.84313726
539.4274292	2.74509811
539.4318237	3.52941179
539.4359741	3.84313726
539.4393921	3.70588231
539.4393921	3.43137264
539.4434815	2.98039222
539.4475708	2.9607842
539.4516602	3.11764717
539.4516602	3.66666675
539.4558106	3.70588231
539.4598999	3.56862736
539.4639893	3.2352941
539.4639893	2.88235283
539.4680786	2.94117641
539.472229	3.19607854
539.4762573	3.74509811
539.4803467	3.47058821
539.4844971	2.84313726
539.4844971	2.62745094
539.4885864	2.60784316
539.4927979	3
539.4967651	3.37254906
539.4967651	3.17647052
539.5008545	2.70588231
539.5049439	2.15686274
539.5092163	2.05882359
539.5092163	2.2352941
539.5131226	2.64705873
539.517273	2.60784316
539.5213013	1.7647059
539.5254517	1.39215684
539.529541	1.43137252
539.529541	1.60784316
539.5335693	2
539.5377197	1.92156863
539.5418701	1.49019611
539.5418701	0.92156863
539.5458984	0.84313726
539.5499878	1.13725495
539.5541382	1.54901958
539.5541382	1.84313726
539.5581665	1.68627453
539.5623169	1.33333337
539.5663452	0.94117647
539.5704346	1.25490201
539.574585	1.7647059
539.574585	1.9803921
539.5786743	1.86274505
539.5827637	1.47058821
539.586853	1.29411769
539.586853	1.56862748
539.5909424	1.94117641
539.5950317	2.45098042
539.5991821	2.52941179
539.5991821	2.27450991
539.6032105	1.78431368
539.6073608	1.72549021
539.6114502	2.52941179
539.6155396	2.70588231
539.6196289	2.60784316
539.6196289	2.43137264
539.6237183	2.01960778
539.6278687	2.0392158
539.631958	2.39215684
539.631958	2.88235283
539.6360474	2.88235283
539.6400757	2.80392146
539.6442261	2.49019599
539.6442261	2.07843137
539.6483154	2.17647052
539.6524048	2.47058821
539.6564941	2.86274505
539.6606445	2.64705873
539.6646729	2.21568632
539.6646729	2.13725495
539.6687622	2.47058821
539.6728516	2.84313726
539.677002	3.11764717
539.677002	2.92156863
539.6810913	2.72549009
539.6851807	2.21568632
539.68927	2.15686274
539.68927	2.37254906
539.6934204	2.78431368
539.6974487	2.78431368
539.7015381	2.17647052
539.7056274	1.82352936
539.7097778	1.86274505
539.7097778	2.13725495
539.7138672	2.52941179
539.7179565	2.50980401
539.7221069	2.27450991
539.7221069	1.92156863
539.7261963	1.86274505
539.7302246	2.13725495
539.734375	2.60784316
539.734375	3.01960778
539.7387085	2.84313726
539.7425537	2.49019599
539.7425537	2.11764717
539.7467041	2.15686274
539.7507324	2.62745094
539.7548218	3
539.7548218	3.13725495
539.7588501	2.98039222
539.7630005	2.47058821
539.7670898	2.13725495
539.7670898	2.27450991
539.7711792	2.52941179
539.7753296	3.05882359
539.7793579	3.17647052
539.7793579	2.84313726
539.7835693	2.31372547
539.7878418	2.19607854
539.7878418	2.54901958
539.7919922	3.01960778
539.7965088	3.21568632
539.8005371	2.94117641
539.8005371	2.66666675
539.8046265	2.25490189
539.8080444	2.21568632
539.8121948	2.39215684
539.8121948	2.84313726
539.8162231	2.88235283
539.8203125	2.60784316
539.8244019	2.01960778
539.8244019	1.72549021
539.8285523	1.86274505
539.8327026	2.17647052
539.8327026	2.56862736
539.836731	2.50980401
539.8408203	2.2352941
539.8449097	1.82352936
539.8449097	1.72549021
539.8490601	2.05882359
539.8533325	2.62745094
539.8579102	2.94117641
539.8579102	2.78431368
539.8614502	2.49019599
539.8660278	2.01960778
539.8695679	2.13725495
539.8695679	2.49019599
539.8735962	3.05882359
539.8777466	3.2352941
539.8777466	3
539.8818359	2.39215684
539.8859253	2.11764717
539.8900147	2.41176462
539.8900147	2.80392146
539.894043	3.21568632
539.8981323	3.07843137
539.9022217	2.74509811
539.9022217	2.27450991
539.9063721	2.29411769
539.9104614	2.39215684
539.9147339	2.90196085
539.9147339	3.2352941
539.9192505	2.94117641
539.9234009	2.45098042
539.9234009	1.96078432
539.9271851	1.9803921
539.9315796	2.29411769
539.9350586	2.60784316
539.9350586	2.58823538
539.939209	2.29411769
539.9432983	1.88235295
539.9473267	1.58823526
539.9473267	1.66666663
539.951416	2.05882359
539.9555054	2.58823538
539.9596558	2.2352941
539.9636841	1.72549021
539.9678345	1.66666663
539.9678345	1.84313726
539.9718628	2.37254906
539.9760132	2.64705873
539.9802246	2.45098042
539.9802246	2.11764717
539.984314	1.68627453
539.9889526	1.72549021
539.9924316	2.09803915
539.9924316	2.60784316
539.9971314	2.80392146
540.0006104	2.64705873
540.0046997	2.47058821
540.0087891	3.07843137
540.0128784	3.82352948
540.0128784	4.49019623
540.0169678	4.52941179
540.0211182	4.01960802
540.0253296	3.09803915
540.0253296	2.31372547
540.0292358	1.68627453
540.0333252	1.56862748
540.0374146	1.58823526
540.0374146	1.39215684
540.0415039	1.25490201
540.0457153	1.03921568
540.050354	2.0392158
540.0545044	2.66666675
540.0586548	2.82352948
540.0586548	2.72549009
540.0620117	2.41176462
540.0661011	2.27450991
540.0702515	2.60784316
540.0702515	2.92156863
540.0743408	3.27450991
540.0784302	3.15686274
540.0825195	2.7647059
540.0825195	2.2352941
540.0865479	2.13725495
540.0906982	2.21568632
540.0948486	2.80392146
540.098877	2.66666675
540.1030884	2.33333325
540.1030884	1.84313726
540.1077271	1.80392158
540.1115723	2.07843137
540.1152954	2.54901958
540.1152954	2.60784316
540.1193237	2.49019599
540.1234741	2.19607854
540.1276245	2.01960778
540.1276245	2.21568632
540.1316528	2.68627453
540.1358032	3.17647052
540.1399536	2.92156863
540.1439819	2.58823538
540.1481323	2.64705873
540.1481323	3.05882359
540.1522217	3.68627453
540.156189	3.92156863
540.1603394	3.78431368
540.1603394	3.50980401
540.1643677	3.07843137
540.1685181	3.11764717
540.1727295	3.41176462
540.1727295	3.82352948
540.1768799	3.7647059
540.1814575	3.54901958
540.1854248	3
540.1890259	3.05882359
540.1931763	3.41176462
540.1931763	3.86274505
540.1973267	3.72549009
540.201355	3.45098042
540.2053833	3.07843137
540.2053833	3
540.2094727	3.29411769
540.213562	3.80392146
540.2176514	3.86274505
540.2176514	3.80392146
540.2218628	3.41176462
540.2258911	2.98039222
540.2258911	3.07843137
540.2300415	3.45098042
540.234436	4.11764717
540.2388306	4.25490189
540.2388306	4.01960802
540.2423096	3.54901958
540.2470093	3.47058821
540.2510986	3.64705873
540.2510986	3.88235283
540.2546387	4.23529434
540.258667	4.17647076
540.2628174	3.9607842
540.2628174	3.43137264
540.2668457	3.35294127
540.2709351	3.52941179
540.2709351	4
540.2750855	4
540.2791138	3.66666675
540.2832031	3.25490189
540.2832031	2.74509811
540.2872925	2.82352948
540.2913818	3
540.2956543	3.33333325
540.2956543	3.17647052
540.3000488	2.86274505
540.3043213	2.41176462
540.3085327	2.15686274
540.3085327	2.19607854
540.3125	2.50980401
540.31604	3
540.31604	2.90196085
540.3201294	2.58823538
540.3242798	2.11764717
540.3283691	2.07843137
540.3283691	2.35294127
540.3323975	2.80392146
540.3364258	2.98039222
540.3405762	2.7647059
540.3405762	2.37254906
540.3446655	1.82352936
540.3487549	1.80392158
540.3528442	2
540.3528442	2.45098042
540.3570557	2.29411769
540.3616333	1.92156863
540.3616333	1.43137252
540.3657837	1.2352941
540.3699341	1.35294116
540.3740234	1.64705884
540.3740234	2.05882359
540.3779907	1.92156863
540.3815308	1.70588231
540.3856812	1.29411769
540.3856812	1.31372547
540.3897705	1.52941179
540.3938599	1.9803921
540.3978882	2.15686274
540.4019775	1.9803921
540.4061279	1.64705884
540.4061279	1.72549021
540.4102173	2.11764717
540.4143066	2.72549009
540.418396	2.80392146
540.418396	2.64705873
540.4226074	2.37254906
540.4265747	2.19607854
540.4313965	2.31372547
540.4313965	2.70588231
540.4353027	3.17647052
540.4395142	3.13725495
540.4430542	2.39215684
540.4471436	2.15686274
540.4512329	2.35294127
540.4512329	2.82352948
540.4553223	3
540.4594116	2.64705873
540.463501	2.29411769
540.463501	1.90196073
540.4675293	1.88235295
540.4716187	2.0392158
540.475769	2.58823538
540.475769	2.74509811
540.4798584	2.39215684
540.4840698	1.9803921
540.4885254	2.05882359
540.4924316	2.37254906
540.4962769	2.90196085
540.4962769	2.86274505
540.5003662	2.66666675
540.5044556	2.25490189
540.508667	2.27450991
540.508667	2.56862736
540.5126343	3.09803915
540.5167236	3.2352941
540.520813	3.09803915
540.520813	2.94117641
540.5249634	2.43137264
540.5289917	2.50980401
540.5331421	3.21568632
540.5373535	3.17647052
540.5418091	2.64705873
540.5418091	2.05882359
540.5460205	1.94117641
540.5501709	2.09803915
540.5542603	2.45098042
540.5542603	2.80392146
540.5583496	2.72549009
540.5625	2.37254906
540.565918	1.84313726
540.565918	1.70588231
540.5700073	1.96078432
540.5740967	2.54901958
540.578186	2.49019599
540.5822144	2.27450991
540.5863648	1.96078432
540.5863648	2.25490189
540.5904541	2.56862736
540.5945435	2.90196085
540.5986328	2.88235283
540.5986328	2.58823538
540.6027832	2.15686274
540.6069336	2.09803915
540.6115112	2.33333325
540.6115112	2.88235283
540.6157227	3.21568632
540.619812	2.88235283
540.6239014	2.17647052
540.6278076	1.94117641
540.6314697	2.11764717
540.6314697	2.64705873
540.6354981	2.64705873
540.6395874	2.49019599
540.6436768	2.15686274
540.6436768	1.74509799
540.6478882	1.80392158
540.6519165	2.01960778
540.6560059	2.54901958
540.6560059	2.58823538
540.6600952	2.37254906
540.6641846	2.09803915
540.668335	2.09803915
540.6724854	2.66666675
540.6765747	3.19607854
540.6765747	3.05882359
540.6812134	2.70588231
540.6853027	2.15686274
540.6889038	2.19607854
540.6889038	2.31372547
540.6928711	2.7647059
540.6970215	3.01960778
540.7011108	2.78431368
540.7011108	2.31372547
540.7052002	1.90196073
540.7092896	1.94117641
540.7092896	2.2352941
540.7133179	2.7647059
540.7174072	2.70588231
540.7215576	2.41176462
540.7215576	1.94117641
540.725647	1.82352936
540.7297974	2
540.734314	2.41176462
540.734314	2.68627453
540.7385254	2.54901958
540.7420654	2.19607854
540.7468262	1.62745094
540.7468262	1.66666663
540.7508545	1.96078432
540.7543335	2.64705873
540.7543335	2.90196085
540.7584839	2.86274505
540.7625732	2.49019599
540.7666016	2.15686274
540.7666016	2.29411769
540.7706299	2.64705873
540.7749634	3.2352941
540.7789307	3.31372547
540.7789307	3.07843137
540.782959	2.60784316
540.7870483	2.41176462
540.7911987	2.58823538
540.7911987	2.90196085
540.7953491	3.09803915
540.8001099	2.88235283
540.8001099	2.47058821
540.8041382	2.01960778
540.8082275	2.05882359
540.8123169	2.31372547
540.8123169	2.78431368
540.8157959	3.0392158
540.8199463	3.11764717
540.8239746	3.05882359
540.8239746	2.94117641
540.828125	3.2352941
540.8320923	3.66666675
540.8362427	3.82352948
540.8362427	3.27450991
540.840332	2.07843137
540.8444824	1
540.8444824	0.4509804
540.8485107	0.43137255
540.8526001	0.88235295
540.8568115	1.45098042
540.8568115	1.62745094
540.8613281	1.64705884
540.8655396	1.60784316
540.8696289	1.90196073
540.8696289	2.43137264
540.8737793	3.05882359
540.8775024	3.2352941
540.8813477	3.09803915
540.8813477	2.74509811
540.885376	2.37254906
540.8895264	2.45098042
540.8895264	2.72549009
540.8935547	3.15686274
540.8977051	3.21568632
540.9017944	2.90196085
540.9017944	2.43137264
540.9058838	2.17647052
540.9099731	2.25490189
540.9140625	2.64705873
540.9140625	3.01960778
540.9180908	2.84313726
540.9223633	2.49019599
540.9264526	1.9803921
540.9310913	2.35294127
540.9350586	2.94117641
540.9350586	3.09803915
540.93927	2.86274505
540.9428101	2.45098042
540.9468994	2.27450991
540.9468994	2.49019599
540.9509888	2.84313726
540.9550781	3.27450991
540.9591675	3.27450991
540.9591675	3.13725495
540.9632568	2.68627453
540.9672852	2.50980401
540.9714356	3.09803915
540.9755249	3.45098042
540.9796143	3.39215684
540.9796143	3.01960778
540.9837647	2.58823538
540.9882813	2.49019599
540.9921265	2.80392146
540.9921265	3.27450991
540.9960327	3.37254906
541.0001221	3.15686274
541.0042114	2.88235283
541.0042114	2.47058821
541.0083008	2.52941179
541.0123901	2.80392146
541.0164795	3.39215684
541.0205689	3.09803915
541.0247192	2.64705873
541.0247192	2.47058821
541.0288086	2.78431368
541.0328369	3.17647052
541.0369873	3.52941179
541.0369873	3.45098042
541.0411377	3.29411769
541.0452271	2.90196085
541.0498657	2.86274505
541.0498657	3.09803915
541.0536499	3.72549009
541.0581055	3.94117641
541.0615845	3.39215684
541.0656738	3.13725495
541.0697632	3.25490189
541.0697632	3.49019599
541.0737915	3.98039222
541.0779419	3.9607842
541.0820923	3.56862736
541.0820923	3.05882359
541.0861206	2.80392146
541.09021	2.98039222
541.0942993	3.33333325
541.0942993	3.56862736
541.0984497	3.27450991
541.102478	2.90196085
541.1066895	2.11764717
541.1112061	2.41176462
541.1154785	2.82352948
541.1154785	2.84313726
541.1194458	2.60784316
541.1236572	2.2352941
541.1270752	1.78431368
541.1270752	1.84313726
541.1311646	2.07843137
541.1352539	2.47058821
541.1394653	2.49019599
541.1394653	2.13725495
541.1434937	1.54901958
541.147583	1.31372547
541.1516113	1.78431368
541.1557007	2.07843137
541.1598511	1.74509799
541.1598511	1.31372547
541.1639404	0.92156863
541.1681519	0.90196079
541.1727905	1.15686274
541.1727905	1.70588231
541.1764526	1.7647059
541.1809692	1.45098042
541.1845093	1.19607842
541.1845093	0.94117647
541.1885376	1.0196079
541.192688	1.43137252
541.1967163	2.07843137
541.2008667	1.64705884
541.204895	1.09803927
541.204895	1.2352941
541.2089844	1.56862748
541.2130737	2
541.2172241	2.31372547
541.2172241	2.19607854
541.2212524	2.09803915
541.2255249	1.84313726
541.2296143	1.96078432
541.2296143	2.21568632
541.2342529	2.64705873
541.2383423	2.78431368
541.2383423	2.70588231
541.2418213	2.37254906
541.246521	1.92156863
541.25	1.92156863
541.25	2.21568632
541.2540894	2.86274505
541.2581787	2.86274505
541.2622681	2.43137264
541.2622681	1.90196073
541.2663574	1.68627453
541.2704468	1.80392158
541.2745361	2.27450991
541.2745361	2.60784316
541.2786865	2.41176462
541.2827148	2.01960778
541.2827148	1.47058821
541.2868042	1.47058821
541.2910767	1.7647059
541.2956543	2.41176462
541.2956543	2.52941179
541.2997437	2.41176462
541.303894	2.15686274
541.3073731	1.94117641
541.3073731	2.11764717
541.3114624	2.45098042
541.3154907	2.92156863
541.3196411	2.92156863
541.3196411	2.72549009
541.3236694	2.33333325
541.3278198	2.2352941
541.3278198	2.49019599
541.3318481	2.88235283
541.3359375	3.21568632
541.3400879	3.09803915
541.3400879	2.62745094
541.3441773	2.21568632
541.3483887	2.52941179
541.3527222	2.80392146
541.3527222	3.11764717
541.3571167	3.19607854
541.361084	3.09803915
541.3653565	2.56862736
541.3653565	2.19607854
541.3694458	2.25490189
541.3728638	2.50980401
541.3728638	2.84313726
541.3770142	2.74509811
541.3811035	2.43137264
541.3851929	2.01960778
541.3851929	2
541.3892212	2.2352941
541.3933106	2.64705873
541.3973999	2.9607842
541.3973999	3.01960778
541.4014893	2.64705873
541.4056397	2.07843137
541.409729	2.47058821
541.4139404	3.09803915
541.4187012	3.07843137
541.4187012	2.9607842
541.4226685	2.58823538
541.4261475	2.17647052
541.4308472	2.19607854
541.4308472	2.58823538
541.4347534	3.0392158
541.4384155	2.9607842
541.4425659	2.60784316
541.4425659	2.07843137
541.4466553	1.96078432
541.4506836	2.17647052
541.454773	2.70588231
541.4588623	2.56862736
541.4629517	2.19607854
541.4629517	1.66666663
541.467041	1.68627453
541.4711304	2.13725495
541.4755249	2.84313726
541.4755249	2.84313726
541.4793701	2.66666675
541.4840698	2.27450991
541.4877319	2.17647052
541.4877319	2.2352941
541.4916992	2.56862736
541.4963989	3.01960778
541.5004273	2.78431368
541.5045776	2.39215684
541.5080566	2.29411769
541.5080566	2.56862736
541.512146	3.09803915
541.5162964	3.25490189
541.5203247	3.15686274
541.5203247	2.88235283
541.5244141	2.47058821
541.5285034	2.41176462
541.5326538	2.54901958
541.5326538	2.94117641
541.5366821	2.98039222
541.5408325	2.80392146
541.5449219	1.84313726
541.5490723	1.80392158
541.5533447	2.09803915
541.5533447	2.60784316
541.5579224	2.60784316
541.5618897	2.19607854
541.565979	1.64705884
541.565979	1.54901958
541.5701294	1.84313726
541.5736084	2.47058821
541.5777588	2.74509811
541.5777588	2.58823538
541.5817871	2.33333325
541.5859375	1.94117641
541.5899048	2.25490189
541.5940552	2.82352948
541.5981445	3.01960778
541.5981445	2.7647059
541.6022339	2.35294127
541.6063232	2.17647052
541.6104736	2.43137264
541.6104736	3.0392158
541.614624	3.52941179
541.6188965	3.84313726
541.6233521	3.80392146
541.6233521	3.62745094
541.6269531	3.64705873
541.6315918	3.54901958
541.6350708	3.13725495
541.6391602	2.09803915
541.6432495	1.2352941
541.6432495	0.39215687
541.6473389	0.25490198
541.6514282	0.78431374
541.6555176	1.60784316
541.6555176	1.94117641
541.6596069	2
541.6636963	1.92156863
541.6678467	1.90196073
541.6678467	2.09803915
541.671875	2.60784316
541.6761475	3.17647052
541.6802368	2.94117641
541.6845093	2.45098042
541.6889038	2.49019599
541.6889038	2.78431368
541.6925049	3.35294127
541.6970825	3.49019599
541.7006226	3.17647052
541.7006226	2.82352948
541.7047119	2.35294127
541.7088013	2.37254906
541.7128906	2.54901958
541.7128906	2.9607842
541.71698	2.9607842
541.7210693	2.66666675
541.7210693	2.29411769
541.7251587	2.01960778
541.7292481	2.13725495
541.7332764	2.43137264
541.7332764	2.7647059
541.7374268	2.64705873
541.7416382	2.50980401
541.7457275	2.09803915
541.7457275	2.07843137
541.7503662	2.33333325
541.7544556	2.88235283
541.7581787	3.09803915
541.7581787	2.94117641
541.762085	2.80392146
541.7661743	2.56862736
541.7661743	2.68627453
541.7702637	3.01960778
541.774292	3.54901958
541.7783814	3.58823538
541.7783814	3.49019599
541.7824707	3.11764717
541.7866211	2.78431368
541.7906494	2.82352948
541.7906494	3.13725495
541.7947998	3.60784316
541.7988281	3.54901958
541.8031006	3.11764717
541.8031006	2.54901958
541.8078003	2.39215684
541.8118286	2.64705873
541.8118286	3.13725495
541.815918	3.39215684
541.8199463	3.29411769
541.8240967	2.88235283
541.8240967	2.47058821
541.8276367	2.52941179
541.831665	2.82352948
541.8358154	3.37254906
541.8358154	3.47058821
541.8399048	3.35294127
541.8439331	3.05882359
541.8480835	2.80392146
541.8480835	3
541.8521118	3.43137264
541.8562012	3.88235283
541.8562012	3.82352948
541.8602905	3.58823538
541.8643799	3.09803915
541.8686523	3.0392158
541.8686523	3.33333325
541.8729248	3.80392146
541.8771362	3.98039222
541.8813477	3.72549009
541.8813477	3.31372547
541.8855591	2.82352948
541.8896484	2.78431368
541.8931274	3.45098042
541.8972168	3.35294127
541.9013062	3.07843137
541.9013062	2.54901958
541.9053955	2.17647052
541.9094849	2.17647052
541.9135742	2.37254906
541.9135742	2.7647059
541.9176636	2.60784316
541.9217529	2.17647052
541.9259033	1.62745094
541.9259033	1.45098042
541.9299316	1.70588231
541.9341431	2.25490189
541.9387817	2.13725495
541.9425659	1.68627453
541.9470215	1.33333337
541.9470215	1.31372547
541.9511108	1.60784316
541.9550781	2.0392158
541.9586792	2.19607854
541.9586792	1.9803921
541.9627686	1.52941179
541.9668579	1.17647064
541.9709473	1.2352941
541.9709473	1.49019611
541.9749756	1.86274505
541.979126	1.74509799
541.9832153	0.92156863
541.9872437	0.80392158
541.9915161	1.17647064
541.9915161	1.7647059
541.9954834	1.9803921
541.9997559	1.7647059
542.0041504	1.45098042
542.0041504	1.05882359
542.0081177	1.13725495
542.0125122	1.49019611
542.0166626	2.19607854
542.0166626	2.33333325
542.020752	2.13725495
542.0241699	1.72549021
542.0283203	1.78431368
542.0323486	2.07843137
542.036499	2.50980401
542.036499	2.47058821
542.0405884	2.15686274
542.0446777	1.68627453
542.0487061	1.56862748
542.0487061	1.80392158
542.0528565	2.35294127
542.0569458	2.58823538
542.0610352	2.27450991
542.0610352	1.88235295
542.0651856	1.37254906
542.0692749	1.49019611
542.0733643	2.31372547
542.0775147	2.25490189
542.081543	1.96078432
542.081543	1.58823526
542.0856323	1.50980389
542.0897217	1.60784316
542.0938721	1.9803921
542.0938721	2.35294127
542.0979614	2.25490189
542.1019898	2.07843137
542.1060791	1.64705884
542.1060791	1.66666663
542.1102295	2.05882359
542.1143189	2.45098042
542.1184082	2.60784316
542.1224976	2.27450991
542.126709	1.78431368
542.126709	1.96078432
542.1310425	2.37254906
542.1355591	2.94117641
542.1389771	2.86274505
542.1389771	2.49019599
542.1430054	2.11764717
542.1470947	1.94117641
542.1513062	2.07843137
542.1513062	2.29411769
542.1552734	2.74509811
542.1594238	2.7647059
542.1634522	2.07843137
542.1675415	1.92156863
542.1716919	2.07843137
542.1716919	2.64705873
542.1757813	2.86274505
542.1798706	2.66666675
542.18396	2.2352941
542.18396	1.78431368
542.1880493	1.90196073
542.1921997	2.31372547
542.1962891	2.92156863
542.1962891	3
542.2003174	2.62745094
542.2044678	2.13725495
542.2044678	1.92156863
542.2086182	2.13725495
542.2126465	2.60784316
542.2167358	2.98039222
542.2167358	2.92156863
542.2208252	2.45098042
542.2250366	1.90196073
542.2290039	1.94117641
542.2290039	2.2352941
542.2331543	2.72549009
542.2372437	2.88235283
542.241333	2.7647059
542.241333	2.39215684
542.2454224	1.96078432
542.2495117	2.13725495
542.2495117	2.43137264
542.25354	2.9607842
542.2576904	3.05882359
542.2618408	2.72549009
542.2618408	2.21568632
542.2658691	2.0392158
542.2699585	2.35294127
542.2741089	2.68627453
542.2741089	3.0392158
542.2781982	3.0392158
542.2822876	2.78431368
542.286377	2.27450991
542.286377	2.2352941
542.2904663	2.62745094
542.2945557	3.17647052
542.2945557	3.29411769
542.2987061	3.0392158
542.3027344	2.78431368
542.3068848	2.47058821
542.3068848	2.47058821
542.3109131	2.64705873
542.3150024	3.19607854
542.3191528	3.25490189
542.3191528	3.01960778
542.3232422	2.60784316
542.3273315	2.39215684
542.3314209	2.56862736
542.3314209	2.90196085
542.3355103	3.2352941
542.3396606	3.2352941
542.3396606	3.05882359
542.343689	2.47058821
542.3478394	2.17647052
542.3519287	2.50980401
542.3519287	2.92156863
542.3560181	3.0392158
542.3601074	2.7647059
542.3641968	2.41176462
542.3641968	1.96078432
542.3682861	2.11764717
542.3723755	2.54901958
542.3764648	2.94117641
542.3805542	2.74509811
542.3846436	2.33333325
542.3846436	2.31372547
542.3887329	2.27450991
542.3928833	2.54901958
542.3969727	3.05882359
542.3969727	2.9607842
542.401062	2.66666675
542.4050903	2.19607854
542.4092407	2.15686274
542.4092407	2.19607854
542.4133301	2.82352948
542.4174805	3.15686274
542.4215698	2.64705873
542.4255981	2.62745094
542.4297485	3.11764717
542.4297485	3.66666675
542.4338379	4.39215708
542.4379883	4.68627453
542.4423218	4.13725471
542.4423218	3.21568632
542.446106	2.31372547
542.4503174	1.56862748
542.4545898	1.29411769
542.4545898	1.29411769
542.4588013	1.2352941
542.4624634	1.09803927
542.4666138	1.03921568
542.4707031	1.54901958
542.4750366	2.35294127
542.4750366	2.72549009
542.4788818	2.84313726
542.4829712	2.60784316
542.4870606	2.2352941
542.4870606	2.37254906
542.4912109	2.74509811
542.4953003	3.33333325
542.4993286	3.37254906
542.4993286	3.11764717
542.50354	2.66666675
542.5076294	2.43137264
542.5119019	2.84313726
542.5159912	3.19607854
542.5201416	3.07843137
542.5201416	2.78431368
542.524231	2.31372547
542.5280762	2.25490189
542.5321655	2.56862736
542.5321655	3.11764717
542.5362549	3.31372547
542.5403442	2.86274505
542.5444336	2.68627453
542.5444336	2.41176462
542.548523	2.49019599
542.5525513	2.78431368
542.5567017	3.41176462
542.560791	3.2352941
542.5648804	2.68627453
542.5648804	2.49019599
542.5690918	2.72549009
542.5735474	3.13725495
542.5778198	3.45098042
542.5778198	3.37254906
542.5818481	3.05882359
542.5860596	2.47058821
542.5895386	2.52941179
542.5895386	2.94117641
542.5936279	3.33333325
542.5977173	3.41176462
542.6017456	3
542.605835	2.56862736
542.6099854	2.49019599
542.6099854	2.90196085
542.6140747	3.43137264
542.618103	3.37254906
542.6222534	3.05882359
542.6222534	2.54901958
542.6263428	2.50980401
542.6304932	2.62745094
542.6351929	2.98039222
542.6351929	3.43137264
542.6392822	3.29411769
542.6431274	3.11764717
542.6474609	2.84313726
542.6515503	3.07843137
542.6550903	3.52941179
542.6550903	3.7647059
542.6591797	3.72549009
542.663269	3.41176462
542.6672974	3.11764717
542.6672974	3.35294127
542.6713867	3.70588231
542.6754761	4.09803915
542.6796265	4.05882359
542.6796265	3.94117641
542.6836548	3.60784316
542.6878662	3.49019599
542.6878662	3.50980401
542.6920166	3.78431368
542.6960449	4.07843161
542.7004395	3.84313726
542.7004395	3.62745094
542.704834	3.17647052
542.708313	2.9607842
542.7130127	3.0392158
542.7130127	3.43137264
542.7164917	3.50980401
542.7205811	3.15686274
542.7248535	2.66666675
542.7248535	2.0392158
542.7287598	2.01960778
542.7328491	2.15686274
542.7328491	2.47058821
542.7369385	2.37254906
542.7410889	2
542.7451782	1.47058821
542.7451782	1.2352941
542.7492676	1.39215684
542.7532959	1.80392158
542.7575073	2.09803915
542.7575073	1.9803921
542.7615967	1.70588231
542.7662354	1.31372547
542.7700806	1.17647064
542.7700806	1.41176474
542.7745361	2.0392158
542.7779541	2.2352941
542.7779541	2.11764717
542.7820435	1.58823526
542.7861939	1.15686274
542.7902222	1.29411769
542.7902222	1.72549021
542.7943726	2.31372547
542.7984009	2.2352941
542.8024292	1.84313726
542.8024292	1.49019611
542.8065796	1.39215684
542.810669	1.62745094
542.8148193	2.0392158
542.8148193	2.41176462
542.8189087	2.29411769
542.8231201	2.05882359
542.8231201	1.62745094
542.8276367	1.50980389
542.8318481	1.80392158
542.8359375	2.47058821
542.8359375	2.60784316
542.8400269	2.43137264
542.8435059	2.01960778
542.8475952	1.66666663
542.8475952	1.78431368
542.8516846	2.07843137
542.8557739	2.62745094
542.8598023	2.21568632
542.8639526	1.78431368
542.868042	1.56862748
542.868042	1.80392158
542.8720703	2.13725495
542.8762207	2.45098042
542.8803101	2.2352941
542.8803101	1.94117641
542.8845215	1.54901958
542.8891602	1.49019611
542.8930054	1.72549021
542.8930054	2.31372547
542.8973389	2.56862736
542.9014893	2.39215684
542.9055176	1.62745094
542.9090576	1.74509799
542.913147	2.05882359
542.913147	2.70588231
542.9172363	2.66666675
542.9212647	2.41176462
542.925354	2
542.925354	1.82352936
542.9294434	2.05882359
542.9335327	2.47058821
542.9376221	2.78431368
542.9376221	2.62745094
542.9417725	2.39215684
542.9458618	2.05882359
542.9500732	2.35294127
542.9544678	2.78431368
542.9581909	2.94117641
542.9581909	2.74509811
542.9628906	2.31372547
542.96698	1.90196073
542.9710693	1.90196073
542.9710693	2.11764717
542.9747925	2.52941179
542.9786377	2.54901958
542.9827881	2.27450991
542.9827881	1.80392158
542.9868164	1.64705884
542.9909058	1.86274505
542.9950562	2.68627453
542.9990845	2.60784316
543.0031738	2.35294127
543.0031738	2.01960778
543.0073242	2.07843137
543.0114136	2.47058821
543.015625	3.01960778
543.015625	3.15686274
543.0197144	2.98039222
543.024353	2.66666675
543.0278931	2.2352941
543.0278931	2.35294127
543.0318604	2.56862736
543.0360107	2.94117641
543.0401001	2.58823538
543.0441895	2.0392158
543.0482788	2.01960778
543.0482788	2.15686274
543.0523682	2.50980401
543.0564575	2.7647059
543.0605469	2.64705873
543.0605469	2.33333325
543.0646973	1.74509799
543.0687256	1.82352936
543.0729981	2.19607854
543.0729981	2.68627453
543.0770264	2.78431368
543.0811157	2.56862736
543.085144	2.0392158
543.0892334	2.07843137
543.0933838	2.41176462
543.0933838	2.90196085
543.0974731	2.98039222
543.1015625	2.74509811
543.1056519	2.17647052
543.1056519	2.05882359
543.1096802	2.11764717
543.1138306	2.68627453
543.1179199	3.19607854
543.1179199	2.9607842
543.1220093	2.49019599
543.1260986	2.01960778
543.130188	2.41176462
543.1343994	2.94117641
543.1390381	3.0392158
543.1390381	2.70588231
543.1425781	2.31372547
543.1466065	2.05882359
543.1506958	2.2352941
543.1506958	2.49019599
543.1547852	2.88235283
543.1589356	2.92156863
543.1630249	2.56862736
543.1630249	1.9803921
543.1671143	1.7647059
543.1712036	2.01960778
543.1712036	2.60784316
543.1752319	3.01960778
543.1793823	2.94117641
543.1834106	2.52941179
543.1834106	2.15686274
543.187561	2.47058821
543.1916504	3.39215684
543.1956787	4.29411745
543.1956787	4.49019623
543.1998901	4.37254906
543.2045898	3.70588231
543.2080689	3
543.2080689	2.45098042
543.2127686	1.96078432
543.216919	1.82352936
543.216919	1.54901958
543.2210083	1.21568632
543.2244873	0.80392158
543.2285156	0.82352942
543.2285156	1.27450979
543.232666	2.01960778
543.2366943	2.58823538
543.2409058	2.58823538
543.2409058	2.39215684
543.2448731	1.96078432
543.2489624	2.07843137
543.2531128	2.49019599
543.2531128	3.17647052
543.2572022	3.25490189
543.2612915	3.0392158
543.2612915	2.60784316
543.2654419	2.21568632
543.2695923	2.31372547
543.274292	2.66666675
543.274292	3.15686274
543.27771	3.15686274
543.2817993	2.80392146
543.2858887	2.35294127
543.2858887	2.19607854
543.289978	2.43137264
543.2940674	2.98039222
543.2981567	3.17647052
543.2981567	3.05882359
543.3022461	2.72549009
543.3063355	2.29411769
543.3063355	2.33333325
543.3104248	2.56862736
543.3145142	3.2352941
543.3186646	3.29411769
543.3186646	3.09803915
543.3227539	2.70588231
543.3269043	2.29411769
543.3309937	2.47058821
543.3309937	2.82352948
543.335083	3.2352941
543.3391724	3.17647052
543.3432617	2.41176462
543.34729	2.27450991
543.3514404	2.45098042
543.3514404	3.0392158
543.3554688	3.2352941
543.3596191	3.13725495
543.3637085	2.86274505
543.3637085	2.43137264
543.3678589	2.68627453
543.3718872	3.01960778
543.3759766	3.66666675
543.3759766	3.80392146
543.380127	3.52941179
543.3841553	3.13725495
543.3883057	3.07843137
543.392395	3.49019599
543.3964844	3.90196085
543.3964844	3.88235283
543.4005737	3.58823538
543.4046631	3.21568632
543.4088135	3.19607854
543.4088135	3.29411769
543.4128418	3.74509811
543.4169922	4.03921556
543.4210815	3.9607842
543.4210815	3.70588231
543.4251709	3.21568632
543.4292603	3.29411769
543.4333496	4.01960802
543.437439	4.07843161
543.4417725	3.72549009
543.4417725	3.31372547
543.4456177	3.15686274
543.449707	3.29411769
543.4538574	3.58823538
543.4538574	3.9607842
543.4581299	3.86274505
543.4620361	3.50980401
543.4661255	3.11764717
543.4661255	2.94117641
543.4701538	2.98039222
543.4744263	3.31372547
543.4784546	3.35294127
543.4824829	2.78431368
543.4866333	2.15686274
543.4866333	2.09803915
543.4907227	2.45098042
543.494812	2.82352948
543.4989014	2.72549009
543.4989014	2.27450991
543.5029297	1.78431368
543.5070801	1.58823526
543.5111694	1.60784316
543.5111694	1.74509799
543.5152588	2.05882359
543.5193481	2.0392158
543.5234375	1.19607842
543.5275879	1.0196079
543.5316773	1.13725495
543.5316773	1.56862748
543.5357666	1.96078432
543.539856	1.86274505
543.5439453	1.35294116
543.5439453	0.86274511
543.5480347	1
543.552124	1.45098042
543.5562744	2.01960778
543.5562744	2.01960778
543.5603027	1.78431368
543.5643921	1.49019611
543.5685425	1.56862748
543.5726318	1.90196073
543.5767822	2.29411769
543.5767822	2.19607854
543.5809326	2.05882359
543.5849609	1.74509799
543.5890503	1.80392158
543.5890503	1.96078432
543.5931397	2.45098042
543.597168	2.7647059
543.6012573	2.62745094
543.6012573	2.39215684
543.6053467	1.82352936
543.6094971	1.92156863
543.6135254	2.58823538
543.6176758	2.60784316
543.6217651	2.2352941
543.6217651	1.7647059
543.6259766	1.49019611
543.630249	1.60784316
543.6343384	2.11764717
543.6343384	2.41176462
543.6384277	2.29411769
543.6425171	2.0392158
543.6464233	1.56862748
543.6464233	1.52941179
543.6504517	1.70588231
543.6546021	2.0392158
543.6546021	2.25490189
543.6586304	2.15686274
543.6627197	1.92156863
543.6668091	1.68627453
543.6668091	1.66666663
543.6708984	1.86274505
543.6749878	2.54901958
543.6790772	2.58823538
543.6790772	2.41176462
543.6832275	2.0392158
543.6873169	1.70588231
543.6917114	1.88235295
543.6917114	2.31372547
543.6959229	2.64705873
543.7002564	2.60784316
543.7002564	2.39215684
543.7039185	1.90196073
543.7078247	1.82352936
543.7119751	2.07843137
543.7119751	2.56862736
543.7160034	2.74509811
543.7200928	2.74509811
543.7241821	2.43137264
543.7241821	1.90196073
543.7283325	2.09803915
543.7323608	2.39215684
543.7364502	2.94117641
543.7364502	3.09803915
543.7406006	2.7647059
543.7446289	2.21568632
543.7446289	2.05882359
543.7487183	2.31372547
543.7528076	2.58823538
543.7571411	3.05882359
543.7571411	3.05882359
543.7617188	2.82352948
543.765625	2.35294127
543.7698975	2.2352941
543.7698975	2.49019599
543.7739868	3
543.7778931	3.19607854
543.7815552	2.98039222
543.7815552	2.43137264
543.7856445	1.92156863
543.7897339	2.07843137
543.7897339	2.2352941
543.7938232	2.82352948
543.7978516	2.66666675
543.802002	2.33333325
543.802002	1.84313726
543.8060913	1.56862748
543.8101807	1.90196073
543.81427	2.07843137
543.81427	2.47058821
543.8184204	2.56862736
543.8225708	2.35294127
543.8270874	2.01960778
543.8312988	2.15686274
543.8353272	2.82352948
543.8353272	3.17647052
543.8394775	2.9607842
543.8430176	2.66666675
543.8470459	2.25490189
543.8470459	2.33333325
543.8512573	2.74509811
543.8552246	3.31372547
543.859375	3.17647052
543.859375	3
543.8634644	2.64705873
543.8674927	2.45098042
543.8716431	2.90196085
543.8757935	3.2352941
543.8798218	3.11764717
543.8798218	2.82352948
543.8840332	2.35294127
543.8884888	2.13725495
543.8921509	2.29411769
543.8921509	2.60784316
543.8968506	2.84313726
543.901001	2.56862736
543.9050903	2.09803915
543.9050903	1.70588231
543.9085693	1.74509799
543.9126587	2.01960778
543.9167481	2.58823538
543.9208984	2.27450991
543.9248657	1.72549021
543.9248657	1.54901958
543.9289551	1.80392158
543.9330444	2.11764717
543.9371948	2.56862736
543.9371948	2.52941179
543.9412842	2.27450991
543.9453125	1.90196073
543.949646	2.07843137
543.949646	2.19607854
543.9539185	2.66666675
543.9577637	2.84313726
543.9619141	2.50980401
543.9664917	2.07843137
543.9699707	2.27450991
543.9699707	2.72549009
543.9740601	3.54901958
543.9782105	4.09803915
543.9822998	4.15686274
543.9822998	3.90196085
543.9863281	3.58823538
543.9904175	3.35294127
543.9945068	3.09803915
543.9945068	2.52941179
543.9986572	1.62745094
544.0026856	1.0196079
544.0068359	0.4509804
544.0109253	0.66666669
544.0151978	1.33333337
544.0151978	1.82352936
544.0196533	1.94117641
544.0238037	1.82352936
544.0279541	1.64705884
544.0279541	1.70588231
544.0320435	2.09803915
544.0355225	2.78431368
544.0396118	2.9607842
544.0396118	2.68627453
544.0437012	2.13725495
544.0478516	1.94117641
544.0519409	2.92156863
544.0559692	3.21568632
544.0601196	3.13725495
544.0601196	2.82352948
544.064148	2.35294127
544.0682373	2.27450991
544.0723267	2.54901958
544.0723267	3.0392158
544.0765381	3.07843137
544.0807495	2.90196085
544.0847168	2.49019599
544.0847168	2.09803915
544.0887451	2.09803915
544.0928955	2.25490189
544.0969238	2.90196085
544.1010742	2.58823538
544.1051636	2.15686274
544.1051636	1.90196073
544.109314	2.15686274
544.1132813	2.62745094
544.1174316	3.0392158
544.1174316	3.0392158
544.121521	2.62745094
544.1256104	2.19607854
544.1296997	2.2352941
544.1296997	2.54901958
544.1338501	3.19607854
544.1378784	3.35294127
544.1378784	3.11764717
544.1422119	2.86274505
544.1462402	2.45098042
544.1502075	2.60784316
544.1502075	3.07843137
544.1542969	3.54901958
544.1583862	3.52941179
544.1625366	3.21568632
544.1625366	2.72549009
544.166626	2.62745094
544.1706543	2.82352948
544.1748047	3.29411769
544.1748047	3.56862736
544.178833	3.43137264
544.1829224	3.13725495
544.1829224	2.68627453
544.1870117	2.7647059
544.1914673	3.13725495
544.1958618	3.72549009
544.1958618	3.94117641
544.2000122	3.68627453
544.2041016	3.39215684
544.2075806	3.0392158
544.2075806	3.2352941
544.2116699	3.49019599
544.2157593	4.05882359
544.2199097	4.07843161
544.2199097	3.86274505
544.223938	3.49019599
544.2280273	3.35294127
544.2280273	3.47058821
544.2321167	3.84313726
544.2362671	4.25490189
544.2402954	4
544.2402954	3.60784316
544.2443848	3.11764717
544.2484741	2.94117641
544.2526856	3.01960778
544.2526856	3.45098042
544.2573853	3.66666675
544.2614746	3.25490189
544.265564	2.72549009
544.265564	2.31372547
544.2696533	2.27450991
544.2737427	2.37254906
544.2737427	2.72549009
544.2772217	2.84313726
544.281311	2.49019599
544.2854614	1.96078432
544.2854614	1.7647059
544.2894898	1.88235295
544.2935181	2.11764717
544.2976685	2.50980401
544.2976685	2.47058821
544.3017578	2.11764717
544.3058472	1.50980389
544.3099365	1.90196073
544.3140259	2.37254906
544.3182373	2.47058821
544.3182373	2.11764717
544.3225708	1.72549021
544.3268433	1.25490201
544.3308716	1.25490201
544.3308716	1.60784316
544.3352051	2.15686274
544.3386231	2.11764717
544.3427734	1.74509799
544.3427734	1.37254906
544.3468628	1.17647064
544.3509522	1.33333337
544.3550415	2.19607854
544.3591309	2.11764717
544.3631592	1.7647059
544.3631592	1.31372547
544.3672485	1.41176474
544.3713989	1.70588231
544.3754883	2.25490189
544.3754883	2.41176462
544.3795776	2.17647052
544.383728	1.84313726
544.3883057	1.62745094
544.3883057	1.72549021
544.3920288	2.11764717
544.3964233	2.62745094
544.4006958	2.50980401
544.4042358	2
544.4083252	1.82352936
544.4083252	1.96078432
544.4124146	2.39215684
544.4164429	2.82352948
544.4205933	2.60784316
544.4205933	2.2352941
544.4246216	1.84313726
544.4287109	1.78431368
544.4328003	1.9803921
544.4328003	2.31372547
544.4369507	2.68627453
544.44104	2.45098042
544.4452515	1.70588231
544.449585	1.68627453
544.4539795	1.94117641
544.4539795	2.52941179
544.4574585	2.49019599
544.4621582	2.27450991
544.4656372	1.72549021
544.4656372	1.50980389
544.4697266	1.74509799
544.473877	2.25490189
544.4779663	2.82352948
544.4779663	2.7647059
544.4819946	2.52941179
544.486084	2.11764717
544.4902344	2.64705873
544.4942627	3.07843137
544.4984131	3.13725495
544.4984131	2.86274505
544.5024414	2.56862736
544.5066528	2.37254906
544.5112915	2.49019599
544.5112915	2.7647059
544.5154419	3.15686274
544.5194702	3.11764717
544.5236206	2.78431368
544.5236206	2.19607854
544.5275269	1.96078432
544.531189	2.13725495
544.5352783	2.9607842
544.5394287	2.88235283
544.5435181	2.66666675
544.5435181	2.09803915
544.5475464	2.07843137
544.5516357	2.41176462
544.5557251	2.94117641
544.5557251	3
544.5598755	2.74509811
544.5639038	2.43137264
544.5680542	2.09803915
544.5680542	2.2352941
544.5722046	2.56862736
544.5767212	3.07843137
544.5809937	2.66666675
544.585083	2.25490189
544.588562	2.11764717
544.588562	2.17647052
544.5926514	2.56862736
544.5967407	2.88235283
544.6008301	2.74509811
544.6008301	2.45098042
544.6049194	2.05882359
544.6090088	2.11764717
544.6130371	2.37254906
544.6130371	2.82352948
544.6171265	3
544.6212158	2.80392146
544.6212158	2.33333325
544.6253662	2.09803915
544.6295166	2.21568632
544.633667	2.52941179
544.633667	3.07843137
544.6380615	3.13725495
544.6420288	2.9607842
544.6462402	2.56862736
544.6462402	2.33333325
544.6505737	2.52941179
544.6540527	2.98039222
544.6582642	3.35294127
544.6582642	3.17647052
544.6622315	2.92156863
544.6663818	2.45098042
544.6663818	2.41176462
544.6704712	2.62745094
544.6744995	3.13725495
544.6785889	3.2352941
544.6785889	3.01960778
544.6826782	2.58823538
544.6868286	2.15686274
544.690979	2.21568632
544.690979	2.43137264
544.6950684	2.84313726
544.6992188	2.78431368
544.7038574	2.50980401
544.7038574	1.9803921
544.7073364	1.7647059
544.7120972	1.84313726
544.7120972	2.31372547
544.7155151	2.66666675
544.7196045	2.52941179
544.7236939	2.19607854
544.7236939	1.82352936
544.7279053	1.88235295
544.7318115	2.15686274
544.736023	2.74509811
544.736023	2.9607842
544.7401123	2.7647059
544.7441406	2.37254906
544.748291	2.13725495
544.748291	2.33333325
544.7523193	2.60784316
544.7565308	3.17647052
544.7565308	3.13725495
544.7606812	2.7647059
544.7653198	2.25490189
544.769104	2.2352941
544.769104	2.50980401
544.7734985	3.05882359
544.7773438	3.7647059
544.7816773	3.98039222
544.7816773	3.92156863
544.7851563	3.56862736
544.7893066	3.49019599
544.793457	3.17647052
544.7974243	2.39215684
544.8015137	1.45098042
544.8015137	0.68627453
544.8056641	0.25490198
544.8096924	0.27450982
544.8138428	0.627451
544.8138428	1.37254906
544.8179321	1.70588231
544.8219605	1.70588231
544.8261108	1.49019611
544.8261108	1.60784316
544.8305664	1.92156863
544.8344116	2.39215684
544.8384399	2.7647059
544.8425293	2.66666675
544.8466187	2.25490189
544.8466187	2.25490189
544.850708	2.54901958
544.8547974	3.11764717
544.8588867	3.29411769
544.8588867	3.17647052
544.8629761	2.7647059
544.8670044	2.41176462
544.8712158	2.41176462
544.8712158	2.7647059
544.8752441	3.2352941
544.8793945	3.25490189
544.8840332	2.49019599
544.8881836	2.33333325
544.8917847	2.47058821
544.8917847	2.7647059
544.8963623	3.13725495
544.9005127	3.07843137
544.9039307	2.66666675
544.9039307	2.19607854
544.90802	2.0392158
544.9121704	2.37254906
544.9162598	3.01960778
544.9162598	3.05882359
544.9203491	2.84313726
544.9243774	2.47058821
544.9285278	2.11764717
544.9325562	2.47058821
544.9367065	3
544.9367065	3
544.9411011	2.88235283
544.9448853	2.49019599
544.949646	2.37254906
544.949646	2.49019599
544.953186	3
544.9573364	3.39215684
544.9619751	3.35294127
544.9619751	3.0392158
544.9660645	2.43137264
544.9701538	2.56862736
544.9735718	3.49019599
544.9777222	3.58823538
544.9817505	3.27450991
544.9817505	2.78431368
544.9859009	2.58823538
544.9899902	2.82352948
544.9940186	3.13725495
544.9940186	3.64705873
544.998169	3.68627453
545.0021973	3.37254906
545.0063477	2.98039222
545.0063477	3.0392158
545.010437	3.27450991
545.0146484	3.68627453
545.0187988	3.72549009
545.0234375	3.58823538
545.0269775	3.27450991
545.0269775	3.31372547
545.0315552	3.35294127
545.0350342	3.72549009
545.0391235	3.86274505
545.0391235	3.74509811
545.0432129	3.37254906
545.0472412	2.98039222
545.0513916	3.05882359
545.0513916	3.27450991
545.055542	3.60784316
545.0596314	3.37254906
545.0636597	2.47058821
545.067688	2.37254906
545.0718994	2.54901958
545.0718994	2.90196085
545.0759277	3.09803915
545.0806885	2.78431368
545.0848389	2.45098042
545.0848389	1.96078432
545.0886841	2
545.0927124	2.2352941
545.0964966	2.58823538
545.0964966	2.56862736
545.1005249	2.27450991
545.1046753	1.82352936
545.1046753	1.39215684
545.1087647	1.45098042
545.112854	1.80392158
545.1170044	2.19607854
545.1170044	2.09803915
545.1209717	1.66666663
545.1251221	1.09803927
545.1292114	0.92156863
545.1292114	1.03921568
545.1333008	1.50980389
545.1375122	1.82352936
545.1416016	1.66666663
545.1416016	1.33333337
545.1459961	0.88235295
545.1503906	0.84313726
545.1503906	1.27450979
545.15448	1.66666663
545.1581421	1.82352936
545.1620483	1.66666663
545.1620483	1.33333337
545.1660767	1.05882359
545.170166	1.27450979
545.1743164	1.66666663
545.1743164	2.21568632
545.1784668	2.27450991
545.1824951	2.07843137
545.1865845	1.66666663
545.1865845	1.66666663
545.1907349	2
545.1947632	2.58823538
545.1947632	2.90196085
545.1988525	2.70588231
545.203064	2.33333325
545.2072754	1.96078432
545.2072754	1.86274505
545.2111816	2.11764717
545.21521	2.62745094
545.2193604	2.74509811
545.2193604	2.35294127
545.2233887	1.86274505
545.2275391	1.62745094
545.2316284	1.68627453
545.2316284	1.9803921
545.2357178	2.33333325
545.2398071	2.2352941
545.2398071	1.94117641
545.2438965	1.47058821
545.2479858	1.31372547
545.2521973	1.70588231
545.2521973	2.31372547
545.2567139	2.54901958
545.2609253	2.41176462
545.2650147	2.07843137
545.2650147	1.60784316
545.269104	1.68627453
545.2732544	2.05882359
545.2767334	2.72549009
545.2767334	2.80392146
545.2808228	2.60784316
545.2849121	2.2352941
545.2849121	2.0392158
545.2890015	2.17647052
545.2930908	2.43137264
545.2971802	3
545.2971802	2.98039222
545.3012695	2.74509811
545.3053589	2.2352941
545.3094482	2.09803915
545.3094482	2.31372547
545.3135376	2.80392146
545.317749	3.09803915
545.3218994	2.52941179
545.3262329	2
545.3300781	2
545.3300781	2.33333325
545.3346558	2.84313726
545.3381348	2.94117641
545.3422852	2.74509811
545.3422852	2.43137264
545.3463745	2.19607854
545.3504639	2.37254906
545.3545532	2.68627453
545.3545532	3.21568632
545.3586426	3.09803915
545.3627319	2.80392146
545.3668213	2.33333325
545.3709106	2.39215684
545.375061	2.94117641
545.375061	3.0392158
545.3791504	2.90196085
545.3833008	2.7647059
545.3873291	2.25490189
545.3873291	2.27450991
545.3916016	2.54901958
545.395874	2.94117641
545.4002686	3.01960778
545.4002686	2.88235283
545.4036865	2.47058821
545.407898	2.0392158
545.4118652	2.54901958
545.4159546	3.0392158
545.420105	2.9607842
545.420105	2.62745094
545.4241333	2.29411769
545.4282227	2.13725495
545.4323731	2.33333325
545.4323731	2.7647059
545.4364624	3.0392158
545.4407959	2.92156863
545.4447632	2.68627453
545.4447632	2.21568632
545.4488525	2.29411769
545.4534912	2.60784316
545.4572144	3.27450991
545.4616699	3
545.4658203	2.43137264
545.4658203	2
545.4692383	2.2352941
545.4733276	2.64705873
545.4775391	3.15686274
545.4775391	3.07843137
545.4815064	2.78431368
545.4855957	2.2352941
545.4896851	2.11764717
545.4896851	2.29411769
545.4938355	2.88235283
545.4978638	3.01960778
545.5020142	2.27450991
545.5060425	1.84313726
545.5102539	1.80392158
545.5102539	2.25490189
545.5148315	2.88235283
545.519043	2.88235283
545.5228272	2.50980401
545.5228272	1.9803921
545.5272217	1.90196073
545.5308838	2.15686274
545.53479	2.72549009
545.53479	3.29411769
545.5388794	3.35294127
545.5430298	3.25490189
545.5470581	3.41176462
545.5510864	4.01960802
545.5552979	4.60784292
545.5552979	4.56862736
545.5593262	3.84313726
545.5633545	2.78431368
545.5675049	1.43137252
545.5675049	0.80392158
545.5717163	0.7647059
545.5758667	1.09803927
545.5805054	1.15686274
545.5805054	1.07843137
545.5845947	0.82352942
545.5886841	0.88235295
545.5886841	1.27450979
545.5921021	1.78431368
545.5962524	2.33333325
545.6003418	2.37254906
545.6003418	2.25490189
545.6043701	1.92156863
545.6084595	1.96078432
545.6126099	2.27450991
545.6126099	2.80392146
545.6166992	3.13725495
545.6208496	3.01960778
545.6248779	2.82352948
545.6248779	2.49019599
545.6289673	2.50980401
545.6331787	2.80392146
545.6331787	3.31372547
545.6372681	3.39215684
545.6416016	3.15686274
545.6456909	2.68627453
545.6456909	2.43137264
545.6501465	2.50980401
545.6536255	2.84313726
545.6577759	3.21568632
545.6577759	3.09803915
545.6618042	2.80392146
545.6658325	2.27450991
545.6699829	2.11764717
545.6699829	2.35294127
545.6740112	2.90196085
545.6781006	3.11764717
545.6781006	2.80392146
545.6821899	2.45098042
545.6862793	2.05882359
545.6906128	2.13725495
545.6906128	2.47058821
545.6945801	3.01960778
545.6987305	3.09803915
545.7033081	2.88235283
545.7033081	2.47058821
545.7072144	2.31372547
545.7115479	2.56862736
545.7150269	3.05882359
545.7150269	3.52941179
545.7191162	3.37254906
545.7232056	3.17647052
545.7232056	2.86274505
545.7272949	2.82352948
545.7313843	3.01960778
545.7354736	3.62745094
545.7354736	3.86274505
545.739563	3.70588231
545.7437134	3.37254906
545.7478027	2.9607842
545.7478027	3
545.7518311	3.29411769
545.7560425	3.84313726
545.7601929	3.88235283
545.7601929	3.68627453
545.7647705	3.27450991
545.7689209	3.11764717
545.7689209	3.25490189
545.7730103	3.58823538
545.7770996	3.98039222
545.7805786	3.82352948
545.7805786	3.45098042
545.784668	3.11764717
545.7887573	3.01960778
545.7928467	3.33333325
545.7928467	3.92156863
545.796875	4.17647076
545.8009644	4
545.8051148	3.0392158
545.8092041	3.07843137
545.8132935	3.37254906
545.8132935	3.86274505
545.8173828	3.88235283
545.8215942	3.49019599
545.8257446	3
545.8257446	2.58823538
545.8303223	2.60784316
545.8340454	2.74509811
545.838562	3.11764717
545.838562	2.88235283
545.842041	2.52941179
545.8461304	2.01960778
545.8502197	2.11764717
545.8542481	2.58823538
545.8584595	2.74509811
545.8584595	2.66666675
545.8624878	2.13725495
545.8665772	1.50980389
545.8706665	1.60784316
545.8706665	2.0392158
545.8747559	2.39215684
545.8788452	2.39215684
545.8830566	2.2352941
545.8830566	1.74509799
545.8872681	1.33333337
545.8913574	1.35294116
545.895874	2.11764717
545.8999023	2.09803915
545.9041138	1.78431368
545.9041138	1.15686274
545.9075928	1.15686274
545.9116821	1.50980389
545.9158325	1.90196073
545.9158325	1.94117641
545.9197998	1.7647059
545.9239502	1.50980389
545.9279785	1.19607842
545.9279785	1.19607842
545.9321289	1.62745094
545.9362183	2.09803915
545.9404297	1.9803921
545.9443359	1.66666663
545.9486084	1.45098042
545.9486084	1.45098042
545.9530029	1.90196073
545.9570923	2.37254906
545.9614868	2.2352941
545.9614868	1.86274505
545.9649048	1.50980389
545.9689941	1.50980389
545.9732056	1.7647059
545.9732056	2.29411769
545.9771729	2.52941179
545.9812622	2.37254906
545.9853516	1.72549021
545.9893799	1.78431368
545.9935913	2.01960778
545.9935913	2.52941179
545.9976807	2.52941179
546.001709	2.29411769
546.0059204	1.7647059
546.0059204	1.60784316
546.0103149	1.74509799
546.0147095	2.11764717
546.0187988	2.50980401
546.0187988	2.52941179
546.0228882	2.21568632
546.0270386	1.60784316
546.0304565	1.68627453
546.0345459	2.13725495
546.0386353	2.43137264
546.0386353	2.27450991
546.0427856	1.80392158
546.046875	1.35294116
546.0509033	1.58823526
546.0509033	1.86274505
546.0549927	2.45098042
546.059082	2.56862736
546.0632324	2.27450991
546.0632324	1.78431368
546.0673218	1.68627453
546.0713501	1.94117641
546.0755005	2.88235283
546.0796509	2.82352948
546.0841675	2.54901958
546.0841675	2.0392158
546.0884399	1.9803921
546.0918579	2.47058821
546.0960083	2.94117641
546.0960083	3.05882359
546.1001587	2.84313726
546.104187	2.45098042
546.1082764	1.9803921
546.1082764	1.90196073
546.1123657	2.25490189
546.1164551	2.7647059
546.1164551	2.74509811
546.1205444	2.43137264
546.1246948	2
546.1287842	1.84313726
546.1287842	1.94117641
546.1328735	2.31372547
546.1369019	2.78431368
546.1410523	2.72549009
546.1410523	2.39215684
546.1452026	1.92156863
546.1499023	1.84313726
546.1536865	2.19607854
546.1536865	2.66666675
546.1575928	2.7647059
546.161499	2.50980401
546.161499	2.27450991
546.1655884	1.92156863
546.1697388	1.94117641
546.1738281	2.2352941
546.1738281	2.78431368
546.1778565	2.80392146
546.1819458	2.56862736
546.1860962	2.07843137
546.1860962	1.80392158
546.1902466	2
546.1942749	2.66666675
546.1984253	3.21568632
546.1984253	3.11764717
546.2025147	2.86274505
546.206543	2.49019599
546.206543	2.45098042
546.2107544	2.68627453
546.21521	3.15686274
546.2194824	3.2352941
546.2194824	3.0392158
546.2231445	2.74509811
546.2271118	2.39215684
546.2312012	2.37254906
546.2312012	2.52941179
546.2352905	3.01960778
546.2393189	3
546.2434082	2.66666675
546.2434082	2.25490189
546.2474976	2.0392158
546.2515869	2.17647052
546.2515869	2.56862736
546.2556763	2.94117641
546.2598267	2.74509811
546.2639771	2.27450991
546.2639771	1.82352936
546.2684937	1.84313726
546.2727051	2.07843137
546.2764282	2.52941179
546.2764282	2.66666675
546.2809448	2.47058821
546.2844849	2.13725495
546.2885132	1.68627453
546.2926025	2.11764717
546.2966919	2.70588231
546.2966919	2.72549009
546.3008423	2.41176462
546.3048096	2.11764717
546.30896	1.94117641
546.30896	2.21568632
546.3130493	2.49019599
546.3171387	2.78431368
546.321228	2.78431368
546.321228	2.60784316
546.3254395	2.19607854
546.3297119	2.33333325
546.3342285	3.68627453
546.3383179	4.39215708
546.341919	4.58823538
546.341919	4.43137264
546.3458252	4.03921556
546.3499756	3.80392146
546.3540649	3.54901958
546.3540649	2.9607842
546.3581543	2.01960778
546.3621826	1.41176474
546.366333	0.74509805
546.366333	0.47058824
546.3703613	0.72549021
546.3745117	1.31372547
546.3786011	2.17647052
546.3826904	2.11764717
546.3869629	1.7647059
546.3869629	1.80392158
546.3909912	2.19607854
546.3956299	2.78431368
546.3991089	3
546.3991089	2.78431368
546.4038696	2.41176462
546.4073486	2.07843137
546.411377	2.2352941
546.411377	2.72549009
546.4155273	3.25490189
546.4196167	3.2352941
546.4237061	2.47058821
546.4277344	2.31372547
546.4319458	2.54901958
546.4319458	2.98039222
546.4359131	3.27450991
546.4400635	3.11764717
546.4441528	2.80392146
546.4441528	2.31372547
546.4482422	2.27450991
546.4523926	2.52941179
546.4564819	3.13725495
546.4564819	3.25490189
546.4611816	2.94117641
546.465271	2.39215684
546.4694214	2.21568632
546.4729614	2.56862736
546.4769898	3.07843137
546.4769898	3.0392158
546.4810181	2.82352948
546.4851685	2.33333325
546.4891968	2.21568632
546.4891968	2.47058821
546.4932861	2.92156863
546.4973755	3.29411769
546.5015259	3.17647052
546.5015259	2.9607842
546.5055542	2.58823538
546.5097046	2.62745094
546.513916	3.37254906
546.5183106	3.45098042
546.522644	3.29411769
546.522644	2.9607842
546.5262451	2.72549009
546.5308228	2.86274505
546.5343628	3.19607854
546.5343628	3.74509811
546.5383911	3.78431368
546.5424805	3.50980401
546.5465698	3.01960778
546.5465698	2.82352948
546.5506592	2.9607842
546.5547485	3.47058821
546.5547485	3.84313726
546.5588379	3.7647059
546.5629273	3.47058821
546.5670776	3.01960778
546.5670776	2.92156863
546.571106	3.15686274
546.5753174	3.70588231
546.579773	3.82352948
546.579773	3.62745094
546.5840454	3.27450991
546.5875244	2.94117641
546.5916748	3.09803915
546.5916748	3.35294127
546.5957642	3.86274505
546.5999146	3.82352948
546.5999146	3.45098042
546.6038818	2.98039222
546.6080322	2.88235283
546.6121216	3.05882359
546.6121216	3.49019599
546.6162109	3.70588231
546.6203003	3.47058821
546.6243897	3.19607854
546.6243897	2.50980401
546.62854	2.27450991
546.6329346	2.37254906
546.6373291	2.86274505
546.6373291	2.9607842
546.6410523	2.74509811
546.6455689	2.2352941
546.6455689	1.78431368
546.6490479	1.86274505
546.6530762	2.11764717
546.6573486	2.56862736
546.6573486	2.49019599
546.6612549	2.05882359
546.6653442	1.54901958
546.6694946	1.41176474
546.6694946	1.47058821
546.673584	1.96078432
546.6776123	2.25490189
546.6817017	2.0392158
546.6817017	1.66666663
546.685791	1.15686274
546.6900635	1.05882359
546.6900635	1.39215684
546.694397	1.88235295
546.6987915	1.92156863
546.7028809	1.80392158
546.7028809	1.49019611
546.7068481	1.2352941
546.7110596	1.39215684
546.7145386	1.66666663
546.7145386	2.13725495
546.7186279	2.21568632
546.7228394	1.86274505
546.7268066	1.33333337
546.7268066	1.31372547
546.730957	1.62745094
546.7349854	2.2352941
546.7349854	2.68627453
546.7390747	2.49019599
546.7431641	2.29411769
546.7472534	1.84313726
546.7472534	1.86274505
546.7513428	2.19607854
546.7555542	2.78431368
546.7602539	2.84313726
546.7602539	2.68627453
546.7643433	2.25490189
546.7684326	1.90196073
546.772522	2.43137264
546.7766113	2.78431368
546.7800903	2.80392146
546.7800903	2.47058821
546.7841797	1.80392158
546.788269	1.74509799
546.7924194	1.9803921
546.7924194	2.37254906
546.7963867	2.54901958
546.8004761	2.39215684
546.8046875	1.9803921
546.8046875	1.62745094
546.8087158	1.64705884
546.8128662	1.86274505
546.8168945	2.41176462
546.821106	2.27450991
546.8254395	1.84313726
546.8254395	1.41176474
546.829895	1.52941179
546.8339233	2.05882359
546.8380737	2.54901958
546.8380737	2.45098042
546.8415527	2.17647052
546.8455811	1.84313726
546.8497925	1.94117641
546.8497925	2.09803915
546.8538818	2.45098042
546.8579102	2.82352948
546.8619385	2.47058821
546.8660278	1.92156863
546.8701782	2.0392158
546.8701782	2.31372547
546.8742676	2.74509811
546.8783569	2.88235283
546.8824463	2.7647059
546.8824463	2.39215684
546.8867188	1.96078432
546.8909912	2.0392158
546.8954468	2.39215684
546.8954468	3.09803915
546.899292	3.11764717
546.9036255	2.74509811
546.9072876	2.15686274
546.9111328	2.49019599
546.9152832	2.90196085
546.9152832	3.0392158
546.9193726	2.80392146
546.9234009	2.68627453
546.9275513	2.17647052
546.9275513	2.13725495
546.9315796	2.29411769
546.935669	2.70588231
546.9398804	2.80392146
546.9398804	2.60784316
546.9438477	2.15686274
546.9481201	1.7647059
546.9523315	2.19607854
546.9567871	2.7647059
546.9609985	2.62745094
546.9609985	2.37254906
546.9644165	1.96078432
546.9685059	1.86274505
546.9726563	2.01960778
546.9726563	2.50980401
546.9767456	2.80392146
546.9807739	2.68627453
546.9849243	2.45098042
546.9849243	1.94117641
546.9889526	2.05882359
546.993103	2.25490189
546.9971314	3.01960778
547.0012817	2.82352948
547.0054932	2.37254906
547.0054932	2.13725495
547.0095215	2.31372547
547.0141602	2.66666675
547.0183106	3.0392158
547.0183106	2.88235283
547.0223389	2.52941179
547.0264282	1.96078432
547.0300293	1.92156863
547.0300293	2.13725495
547.0340576	2.56862736
547.038147	2.84313726
547.0421753	2.31372547
547.0463257	1.78431368
547.050415	1.84313726
547.050415	2.17647052
547.0545044	2.70588231
547.0585938	2.88235283
547.0628052	2.58823538
547.0628052	2.07843137
547.0668335	1.80392158
547.0709229	1.9803921
547.0750122	2.29411769
547.0750122	2.72549009
547.0790405	2.78431368
547.083252	2.58823538
547.083252	2.09803915
547.0879517	2
547.0915527	2.41176462
547.09552	2.92156863
547.09552	3.19607854
547.0995483	3.11764717
547.1036377	3.17647052
547.1077881	3.11764717
547.1077881	3.60784316
547.1119385	4.35294104
547.1159668	4.98039198
547.1200562	4.72549009
547.1200562	4.05882359
547.1241455	2.90196085
547.1283569	1.66666663
547.1283569	1.11764705
547.1323853	1.11764705
547.1364136	1.41176474
547.140686	1.39215684
547.140686	1.2352941
547.1447144	0.92156863
547.1489258	0.98039216
547.1535034	1.43137252
547.1535034	2.0392158
547.1569214	2.41176462
547.1610718	2.31372547
547.1651611	2.15686274
547.1651611	1.66666663
547.1692505	1.68627453
547.1733398	2.13725495
547.1733398	2.68627453
547.1774292	2.78431368
547.1814575	2.66666675
547.1856079	2.2352941
547.1856079	2.01960778
547.1896973	2.13725495
547.1938477	2.64705873
547.197937	3.15686274
547.197937	3.19607854
547.2019653	2.84313726
547.2060547	2.41176462
547.2102661	2.37254906
547.2102661	2.52941179
547.2149048	2.90196085
547.2189941	3.0392158
547.2189941	2.90196085
547.2224731	2.56862736
547.2265625	2.11764717
547.2307739	2.2352941
547.2307739	2.47058821
547.2347412	3.01960778
547.2388306	3.05882359
547.242981	2.78431368
547.242981	2.25490189
547.2470093	1.94117641
547.2511597	2.11764717
547.255249	2.9607842
547.2592773	3
547.2635498	2.72549009
547.2635498	2.33333325
547.2680054	2.27450991
547.2722778	2.47058821
547.2762451	3.11764717
547.2762451	3.52941179
547.2804565	3.37254906
547.2845459	3.05882359
547.2880249	2.84313726
547.2880249	2.92156863
547.2921753	3.13725495
547.2962647	3.66666675
547.300354	3.68627453
547.3043823	3.21568632
547.3085327	3
547.3085327	3.09803915
547.312561	3.54901958
547.3165894	3.9607842
547.3208008	3.90196085
547.3208008	3.50980401
547.3248901	2.90196085
547.3289185	2.86274505
547.3336792	3.21568632
547.3336792	3.84313726
547.3378296	4.09803915
547.3414307	3.88235283
547.3453369	3.17647052
547.3494263	3.19607854
547.3535767	3.56862736
547.3535767	4.1960783
547.357666	4.17647076
547.3617554	3.74509811
547.3658447	3.33333325
547.3658447	3.13725495
547.3698731	3.33333325
547.3740234	3.66666675
547.3781128	4.01960802
547.3781128	3.88235283
547.3821411	3.50980401
547.3864136	2.98039222
547.3905029	2.86274505
547.3952026	3.33333325
547.3987427	3.37254906
547.3987427	3
547.4033203	2.37254906
547.4068604	1.7647059
547.4109497	1.72549021
547.4109497	1.92156863
547.4150391	2.37254906
547.4190674	2.25490189
547.4232788	1.84313726
547.4232788	1.33333337
547.4272461	1.03921568
547.4313965	1.21568632
547.4354248	1.92156863
547.4395752	1.80392158
547.4436646	1.41176474
547.4436646	1
547.4476929	1.03921568
547.4519653	1.35294116
547.4561157	1.86274505
547.4561157	2.05882359
547.4606934	1.86274505
547.4647827	1.47058821
547.4688721	1.03921568
547.4688721	1.11764705
547.4724121	1.45098042
547.4765625	1.9803921
547.4805908	1.84313726
547.4846191	1.41176474
547.4887085	1.19607842
547.4887085	1.43137252
547.4928589	1.86274505
547.4969482	2.25490189
547.5009766	2.11764717
547.5009766	1.86274505
547.505127	1.50980389
547.5091553	1.64705884
547.5133667	1.92156863
547.5133667	2.50980401
547.5180664	2.72549009
547.5221558	2.56862736
547.526062	1.7647059
547.5303345	1.92156863
547.5344238	2.33333325
547.5344238	2.80392146
547.5379028	2.84313726
547.5419922	2.66666675
547.5461426	2.2352941
547.5461426	1.9803921
547.5501709	2.13725495
547.5541992	2.47058821
547.5583496	2.68627453
547.5583496	2.52941179
547.5625	2.13725495
547.5665283	1.68627453
547.5665283	1.66666663
547.5706787	1.86274505
547.5747681	2.27450991
547.5789185	2.45098042
547.5789185	2.09803915
547.5831299	1.62745094
547.5870972	1.29411769
547.5911865	1.41176474
547.5911865	1.72549021
547.595459	2.27450991
547.5993652	2.19607854
547.6034546	1.96078432
547.6034546	1.47058821
547.607544	1.2352941
547.6116333	1.47058821
547.6116333	1.88235295
547.6157227	2.37254906
547.6198731	2.37254906
547.6239624	2.2352941
547.6239624	1.72549021
547.6280518	1.78431368
547.6320801	2.05882359
547.6362305	2.74509811
547.6362305	3.01960778
547.6404419	2.9607842
547.6443481	2.54901958
547.6485596	2.17647052
547.6485596	2.29411769
547.6526489	2.74509811
547.6568604	3.27450991
547.6568604	3.21568632
547.6608276	3
547.6655273	2.50980401
547.6696167	2.19607854
547.6696167	2.31372547
547.6732788	2.72549009
547.6771851	3.15686274
547.6818848	2.98039222
547.6818848	2.66666675
547.6860352	2.15686274
547.6899414	2.11764717
547.6936035	2.37254906
547.6936035	2.78431368
547.6981812	2.74509811
547.7023926	2.60784316
547.7023926	2.33333325
547.7064819	1.82352936
547.7105713	1.94117641
547.7140503	2.37254906
547.7140503	2.84313726
547.7181397	2.88235283
547.72229	2.43137264
547.7263794	2
547.7263794	1.7647059
547.7304077	1.78431368
547.7344971	2.2352941
547.7385864	2.68627453
547.7426758	2.43137264
547.7468872	2.11764717
547.7468872	2.21568632
547.7508545	2.39215684
547.7550659	2.68627453
547.7597046	2.90196085
547.7597046	2.82352948
547.763794	2.49019599
547.7679443	2.05882359
547.7720337	2.19607854
547.7720337	2.58823538
547.776001	3.09803915
547.7796021	3.01960778
547.7836914	2.19607854
547.7878418	2.01960778
547.7918701	2.13725495
547.7918701	2.41176462
547.7958984	2.72549009
547.8000488	2.66666675
547.8041382	2.37254906
547.8041382	1.78431368
547.8082275	1.62745094
547.8123169	1.86274505
547.8164063	2.29411769
547.8164063	2.50980401
547.8206177	2.41176462
547.8248901	2
547.8294067	1.72549021
547.8334961	2.09803915
547.8375855	2.78431368
547.8375855	3.07843137
547.8411255	3.15686274
547.8450928	3
547.8492432	3.09803915
547.8492432	3.62745094
547.8533325	4.07843161
547.8574219	4.15686274
547.8614502	3.49019599
547.8614502	2.35294127
547.8655396	1.13725495
547.8696899	0.68627453
547.8738403	1.41176474
547.8778687	1.72549021
547.881958	1.88235295
547.881958	1.96078432
547.8861694	1.80392158
547.8903809	2.05882359
547.8948975	2.58823538
547.8948975	3.21568632
547.8988037	3.27450991
547.9030151	3.07843137
547.9066162	2.68627453
547.9066162	2.47058821
547.9107056	2.60784316
547.9147949	3
547.9188232	3.25490189
547.9229126	2.92156863
547.927002	2.31372547
547.927002	2.19607854
547.9311523	2.47058821
547.9351807	2.90196085
547.9393311	3.01960778
547.9393311	2.84313726
547.9434204	2.52941179
547.9475708	2.09803915
547.9522705	2.13725495
547.9522705	2.47058821
547.9563599	2.9607842
547.9605103	3.09803915
547.9639282	2.35294127
547.9680176	2.19607854
547.972168	2.33333325
547.972168	2.70588231
547.9762573	3.17647052
547.9802856	3.01960778
547.984375	2.72549009
547.984375	2.27450991
547.9884644	2.25490189
547.9925537	2.45098042
547.9967041	2.94117641
547.9967041	3.11764717
548.0007324	2.92156863
548.0050049	2.66666675
548.0092163	2.29411769
548.0136719	2.70588231
548.0178223	3.19607854
548.0178223	3.2352941
548.0218506	2.94117641
548.0258789	2.35294127
548.02948	2.25490189
548.02948	2.50980401
548.0335693	2.9607842
548.0376587	3.33333325
548.0417481	3.2352941
548.0417481	2.98039222
548.0457764	2.60784316
548.0499268	2.60784316
548.0499268	2.98039222
548.0540161	3.49019599
548.0581055	3.64705873
548.0621948	3.49019599
548.0621948	3.21568632
548.0663452	2.90196085
548.0704346	2.88235283
548.0745239	3.17647052
548.0745239	3.78431368
548.0786133	3.98039222
548.0828857	3.80392146
548.086853	3.33333325
548.086853	3.27450991
548.0909424	3.56862736
548.0950317	4.01960802
548.0950317	4.43137264
548.0991211	4.47058821
548.1031494	4.13725471
548.1072998	3.58823538
548.1072998	3.49019599
548.1113281	3.80392146
548.1154175	4.25490189
548.1195679	4.29411745
548.1195679	3.88235283
548.1237793	3.37254906
548.1277466	2.88235283
548.1318359	2.7647059
548.1318359	2.86274505
548.1365967	3.15686274
548.1401367	2.9607842
548.1401367	2.60784316
548.1447754	2
548.1489258	1.72549021
548.1524048	1.72549021
548.1524048	2.05882359
548.1564941	2.33333325
548.1605835	2.07843137
548.1646729	1.78431368
548.1646729	1.09803927
548.1687012	1.07843137
548.1729736	1.27450979
548.1769409	1.7647059
548.1769409	1.78431368
548.1810303	1.60784316
548.1851196	1.17647064
548.1851196	0.82352942
548.189209	0.84313726
548.1932983	1.09803927
548.1974487	1.7647059
548.1974487	1.82352936
548.2015381	1.60784316
548.2062378	1.15686274
548.210022	1.0196079
548.210022	1.25490201
548.2138062	1.78431368
548.2179565	2.21568632
548.2219849	1.84313726
548.2261353	1.43137252
548.2301025	1.54901958
548.2301025	1.78431368
548.2342529	2.31372547
548.2383423	2.54901958
548.2424316	2.45098042
548.2424316	2.0392158
548.246582	1.64705884
548.2506104	1.70588231
548.2548218	2.09803915
548.2548218	2.70588231
548.2593384	2.66666675
548.2636108	2.37254906
548.2675781	1.80392158
548.2717896	2.07843137
548.2752686	2.62745094
548.2752686	2.94117641
548.2792969	2.72549009
548.2833862	2.33333325
548.2875366	1.84313726
548.2875366	1.94117641
548.291626	2.25490189
548.2957153	2.72549009
548.2998047	2.80392146
548.2998047	2.52941179
548.303894	2.17647052
548.3079834	1.92156863
548.3120728	2.15686274
548.3162842	2.66666675
548.3208008	2.70588231
548.3208008	2.39215684
548.3244629	1.78431368
548.3288574	1.62745094
548.333252	1.7647059
548.333252	2.17647052
548.3366699	2.49019599
548.3408203	2.37254906
548.3449097	2
548.3449097	1.45098042
548.348999	1.41176474
548.3530884	1.66666663
548.3571777	2.56862736
548.3612061	2.31372547
548.3653565	1.84313726
548.3653565	1.49019611
548.3694458	1.66666663
548.3735352	2.11764717
548.3777466	2.74509811
548.3777466	2.70588231
548.3821411	2.33333325
548.3864746	1.80392158
548.3899536	1.72549021
548.3899536	2.07843137
548.3946533	2.72549009
548.3987427	3.11764717
548.402832	2.74509811
548.406311	2.29411769
548.4104614	2.35294127
548.4104614	2.70588231
548.4145508	3.2352941
548.4185791	3.33333325
548.4227295	3.07843137
548.4227295	2.66666675
548.4268189	2.29411769
548.4309082	2.37254906
548.4349976	2.78431368
548.4349976	3.17647052
548.439148	3.11764717
548.4431763	2.80392146
548.4472656	2.17647052
548.451355	2.35294127
548.4555054	2.84313726
548.4555054	3.07843137
548.460083	2.86274505
548.4642944	2.39215684
548.4678955	1.88235295
548.4678955	1.82352936
548.4719238	1.9803921
548.4760132	2.52941179
548.4800415	2.58823538
548.4800415	2.37254906
548.4841309	1.82352936
548.4882202	1.45098042
548.4923096	1.88235295
548.4963989	2.47058821
548.5005493	2.39215684
548.5005493	2.11764717
548.5045776	1.72549021
548.5087891	1.68627453
548.5134277	1.92156863
548.5134277	2.49019599
548.5175171	2.86274505
548.5216675	2.82352948
548.5256348	2.54901958
548.5256348	2.17647052
548.5297852	2.2352941
548.5333862	2.64705873
548.5333862	3.29411769
548.5374146	3.49019599
548.5415649	3.35294127
548.5455933	3.13725495
548.5455933	3.2352941
548.5496216	3.78431368
548.553772	4.39215708
548.5578613	4.98039198
548.5578613	4.78431368
548.5619507	4.07843161
548.56604	2.84313726
548.5701904	1.82352936
548.5701904	1.31372547
548.574585	1.37254906
548.5787964	1.47058821
548.5787964	1.27450979
548.5830689	1.0196079
548.586792	0.66666669
548.5908203	0.84313726
548.5908203	1.27450979
548.5947876	1.94117641
548.598877	2.09803915
548.6029663	2.01960778
548.6029663	1.68627453
548.6070557	1.39215684
548.611084	1.52941179
548.6151733	1.96078432
548.6151733	2.60784316
548.6193237	2.66666675
548.6234131	2.49019599
548.6234131	2.15686274
548.6275024	2
548.6315918	2.33333325
548.6357422	2.92156863
548.6357422	3.37254906
548.6398926	3.2352941
548.644104	2.9607842
548.6486206	2.41176462
548.6486206	2.58823538
548.6526489	2.78431368
548.6563721	3.33333325
548.6603394	3.41176462
548.6603394	3.21568632
548.6643677	2.72549009
548.6685181	2.35294127
548.6685181	2.50980401
548.6725464	2.92156863
548.6766968	3.37254906
548.6807251	3.17647052
548.6807251	2.80392146
548.6848755	2.45098042
548.6890259	2.27450991
548.6930542	2.41176462
548.6930542	2.88235283
548.6970825	3.29411769
548.7012329	3.05882359
548.7054443	2.27450991
548.7095337	2.2352941
548.713562	2.58823538
548.713562	3.11764717
548.7177124	3.25490189
548.7218018	2.98039222
548.7258911	2.56862736
548.7258911	2.2352941
548.7298584	2.39215684
548.7340088	2.7647059
548.7380981	3.29411769
548.7380981	3.39215684
548.7421875	3.11764717
548.7462769	2.60784316
548.7504273	2.7647059
548.7545776	3.43137264
548.7591553	3.74509811
548.7591553	3.64705873
548.7633667	3.25490189
548.767395	2.7647059
548.7711792	2.92156863
548.7711792	3.27450991
548.7750244	3.82352948
548.7790527	3.94117641
548.7832642	3.88235283
548.7832642	3.47058821
548.7872925	3.25490189
548.7913818	3.39215684
548.7954712	4.37254906
548.7994995	4.31372547
548.8036499	4
548.8036499	3.37254906
548.8077393	3.15686274
548.8118286	3.33333325
548.81604	3.7647059
548.81604	3.88235283
548.8206787	3.47058821
548.8242798	2.92156863
548.8289185	2.29411769
548.8289185	2.27450991
548.8329468	2.31372547
548.8370972	2.66666675
548.8405762	2.35294127
548.8446045	1.7647059
548.8486939	1.41176474
548.8486939	1.52941179
548.8528442	1.82352936
548.8568726	2.27450991
548.861023	2.2352941
548.861023	2
548.8650513	1.52941179
548.8692017	1.37254906
548.873291	1.58823526
548.873291	2.11764717
548.8773193	2.39215684
548.8815918	2.39215684
548.8862305	1.62745094
548.8897095	1.49019611
548.8944702	1.70588231
548.8944702	2.21568632
548.8984985	2.29411769
548.9025269	1.94117641
548.9060669	1.43137252
548.9060669	1.13725495
548.9102173	1.19607842
548.9142456	1.54901958
548.918396	1.86274505
548.918396	1.94117641
548.9224243	1.66666663
548.9265137	1.17647064
548.930603	1.21568632
548.9347534	1.64705884
548.9388428	2.07843137
548.9388428	2.11764717
548.9429932	1.72549021
548.9470825	1.33333337
548.9515991	1.37254906
548.9515991	1.78431368
548.9559326	2.31372547
548.9593506	2.47058821
548.9634399	2.29411769
548.9634399	1.94117641
548.9675903	1.82352936
548.9716797	2.0392158
548.975769	2.9607842
548.9797974	2.86274505
548.9838867	2.56862736
548.9838867	2.05882359
548.9879761	1.92156863
548.9921265	1.92156863
548.9961548	2.39215684
548.9961548	2.56862736
549.0002441	2.54901958
549.0044556	2.09803915
549.0090332	1.66666663
549.0090332	1.60784316
549.0130615	1.86274505
549.017334	2.47058821
549.017334	2.54901958
549.0213623	2.35294127
549.0253296	1.90196073
549.0289917	1.74509799
549.0289917	1.88235295
549.03302	2.25490189
549.0371704	2.74509811
549.0412598	2.68627453
549.0412598	2.39215684
549.0452881	1.88235295
549.0493774	1.70588231
549.0535278	1.88235295
549.0535278	2.47058821
549.0576172	2.86274505
549.0617676	2.74509811
549.0617676	2.35294127
549.0658569	1.94117641
549.0700073	2
549.0740356	2.27450991
549.0740356	2.80392146
549.0787354	2.84313726
549.0828247	2.64705873
549.0869751	2.2352941
549.0869751	2.01960778
549.0904541	2.09803915
549.0945435	2.45098042
549.0986328	2.9607842
549.0986328	3
549.1027222	2.68627453
549.1068115	2.17647052
549.1068115	2.21568632
549.1108398	2.56862736
549.1149292	3
549.1190186	3.2352941
549.1190186	2.9607842
549.12323	2.66666675
549.1272583	2.25490189
549.1314087	2.21568632
549.1314087	2.60784316
549.135437	3.07843137
549.1395874	3.17647052
549.1443481	2.9607842
549.1443481	2.37254906
549.1483765	2.11764717
549.1525879	2.29411769
549.1525879	2.68627453
549.1559448	3.01960778
549.1600952	2.94117641
549.1641846	2.70588231
549.1641846	2.19607854
549.1682739	2.0392158
549.1723023	2.15686274
549.1764526	2.62745094
549.1764526	2.82352948
549.180542	2.56862736
549.1846314	2.17647052
549.1887207	1.94117641
549.1928711	2.37254906
549.1969605	2.9607842
549.1969605	3.01960778
549.2009888	2.62745094
549.2058106	2.07843137
549.2098389	1.92156863
549.2098389	2.05882359
549.2133179	2.37254906
549.2174072	2.80392146
549.2215576	2.68627453
549.2215576	2.49019599
549.2255859	2
549.2296753	1.90196073
549.2337647	2.39215684
549.237854	2.62745094
549.2419434	2.54901958
549.2419434	2.19607854
549.2460327	1.84313726
549.2501221	1.90196073
549.2543945	2.11764717
549.2543945	2.56862736
549.2583618	2.68627453
549.2628784	2.47058821
549.2672119	2.17647052
549.2672119	1.9803921
549.2711182	2.0392158
549.2751465	2.27450991
549.2788696	2.84313726
549.282959	2.7647059
549.2871094	2.49019599
549.2871094	2.7647059
549.2911377	3.37254906
549.295166	4.17647076
549.2993164	4.68627453
549.2993164	4.60784292
549.3033447	4
549.3074951	3.0392158
549.3115845	2.2352941
549.3115845	1.80392158
549.3156738	1.90196073
549.3199463	1.7647059
549.3240356	1.17647064
549.3286743	1.13725495
549.3327637	1.49019611
549.3327637	2.13725495
549.336853	2.72549009
549.3405151	2.66666675
549.3444214	2.43137264
549.3444214	1.90196073
549.3485107	1.94117641
549.3526001	2.31372547
549.3566284	2.74509811
549.3566284	2.86274505
549.3607178	2.68627453
549.3648682	2.27450991
549.3689575	1.88235295
549.3730469	2.17647052
549.3771973	2.72549009
549.3771973	2.80392146
549.3812256	2.60784316
549.385437	2.17647052
549.3895264	1.86274505
549.3895264	2.07843137
549.394165	2.52941179
549.3977661	3.01960778
549.4024048	2.94117641
549.4024048	2.68627453
549.4058838	2.25490189
549.4099731	2.21568632
549.4140625	3.17647052
549.4181519	3.35294127
549.4222412	3.13725495
549.4222412	2.90196085
549.4262695	2.45098042
549.4303589	2.56862736
549.4345703	2.94117641
549.4345703	3.60784316
549.4385986	3.66666675
549.442688	3.41176462
549.4468384	2.90196085
549.4468384	2.70588231
549.4509277	2.78431368
549.4550171	3.19607854
549.4591065	3.49019599
549.4631958	3.13725495
549.4672852	2.72549009
549.4672852	2.72549009
549.4713745	2.78431368
549.4754639	3.2352941
549.4796143	3.45098042
549.4796143	3.2352941
549.4837036	2.90196085
549.487793	2.62745094
549.4918823	2.66666675
549.4918823	3.07843137
549.4959717	3.68627453
549.5	3.64705873
549.5	3.27450991
549.5041504	2.94117641
549.5082398	2.88235283
549.5123901	2.9607842
549.5123901	3.47058821
549.5164795	4.01960802
549.5205689	3.98039222
549.5246582	3.60784316
549.5246582	3.2352941
549.5287476	3.39215684
549.5328369	3.64705873
549.5369263	4.07843161
549.5369263	4.21568632
549.5410156	4.11764717
549.545105	3.74509811
549.545105	3.35294127
549.5492554	3.49019599
549.5532837	3.80392146
549.5574341	4.31372547
549.5574341	4.1960783
549.5615234	3.70588231
549.5655518	3.13725495
549.5697022	2.88235283
549.5697022	2.7647059
549.5738525	3.0392158
549.5778809	3.19607854
549.5820313	3
549.5820313	2.47058821
549.5861206	1.88235295
549.5903931	1.62745094
549.5903931	1.88235295
549.5942993	2.33333325
549.5983276	2.17647052
549.602478	1.90196073
549.602478	1.50980389
549.6067505	1.17647064
549.6106567	1.13725495
549.6147461	1.35294116
549.6147461	1.84313726
549.6188355	1.80392158
549.6229248	1.45098042
549.6270752	1.0196079
549.6270752	0.86274511
549.6311035	1.05882359
549.6351929	1.52941179
549.6351929	1.88235295
549.6394043	1.68627453
549.6433716	1.29411769
549.647522	0.92156863
549.647522	0.84313726
549.6516113	1
549.6557007	1.52941179
549.6598511	1.88235295
549.6598511	1.78431368
549.6638794	1.39215684
549.6679688	1.09803927
549.6721191	1.29411769
549.6721191	1.60784316
549.6761475	2.21568632
549.6802979	2.39215684
549.6802979	2.13725495
549.6843872	1.60784316
549.6885376	1.56862748
549.6925659	1.94117641
549.6925659	2.45098042
549.6966553	2.86274505
549.7007446	2.78431368
549.704834	2.54901958
549.704834	2.01960778
549.7089233	2.01960778
549.7130737	2.41176462
549.7171631	3.11764717
549.7212524	2.82352948
549.7253418	2.47058821
549.7253418	2.09803915
549.7294312	2.07843137
549.7335205	2.43137264
549.7376099	2.94117641
549.7376099	2.92156863
549.7416992	2.56862736
549.7458496	1.94117641
549.75	1.74509799
549.75	1.96078432
549.7540283	2.39215684
549.7582398	2.62745094
549.7622681	2.09803915
549.7663574	1.68627453
549.7704468	1.68627453
549.7704468	1.96078432
549.7744751	2.50980401
549.7785645	2.66666675
549.7826538	2.52941179
549.7826538	2.11764717
549.7868042	1.78431368
549.7908936	1.86274505
549.7949829	2.09803915
549.7949829	2.66666675
549.7990723	2.72549009
549.8031006	2.37254906
549.8073731	1.74509799
549.8114624	1.86274505
549.8155518	2.19607854
549.8155518	2.41176462
549.8196411	2.37254906
549.8238525	2.15686274
549.828064	1.50980389
549.828064	1.52941179
549.8320923	1.80392158
549.8361816	2.35294127
549.8400879	2.47058821
549.8400879	2.33333325
549.8441773	1.90196073
549.8483276	1.52941179
549.8522949	1.96078432
549.8563843	2.50980401
549.8605347	2.56862736
549.8605347	2.39215684
549.864624	2
549.8686523	1.9803921
549.8730469	2.21568632
549.8730469	2.78431368
549.8768921	3.11764717
549.8811646	3.11764717
549.8857422	2.84313726
549.8857422	2.25490189
549.8893433	2.07843137
549.8939209	2.35294127
549.8980713	2.9607842
549.9021606	2.62745094
549.9055786	2.17647052
549.9055786	1.66666663
549.909729	1.56862748
549.9138184	1.7647059
549.9179077	2.29411769
549.9179077	2.37254906
549.921936	2.05882359
549.9260254	1.50980389
549.9301758	1.49019611
549.9301758	1.72549021
549.9342041	2.25490189
549.9383545	2.68627453
549.9424439	2.43137264
549.9467163	2
549.9508057	2.01960778
549.9508057	2.39215684
549.9555054	3.01960778
549.9594727	3.09803915
549.9630127	3
549.9630127	2.60784316
549.967041	2.27450991
549.9711304	2.35294127
549.9752808	2.7647059
549.9752808	3.17647052
549.9792481	3.05882359
549.9833984	2.80392146
549.9833984	2.19607854
549.9874268	2.01960778
549.9915772	2.05882359
549.9956665	2.47058821
549.9956665	2.68627453
549.9998169	2.47058821
550.0039673	2.13725495
550.0084839	1.56862748
550.0084839	1.54901958
550.0124512	1.7647059
550.0167847	2.33333325
550.0206909	2.47058821
550.0206909	2.2352941
550.0247192	1.86274505
550.0285034	1.54901958
550.0285034	1.66666663
550.0326538	2.01960778
550.0367432	2.64705873
550.0407715	2.58823538
550.0407715	2.33333325
550.0447998	1.80392158
550.0489502	1.78431368
550.0530396	1.92156863
550.0530396	2.60784316
550.0571289	2.98039222
550.0612183	3.07843137
550.0653687	3.21568632
550.0653687	3.13725495
550.069397	3.58823538
550.0735474	4.23529434
550.0735474	4.8039217
550.078186	4.68627453
550.0823975	4.11764717
550.0864868	2.64705873
550.0864868	1.41176474
550.0899658	1.05882359
550.0940552	1.13725495
550.0981445	1.50980389
550.0981445	1.49019611
550.1021729	1.39215684
550.1062622	1.05882359
550.1104126	1.09803927
550.1104126	1.49019611
550.114502	2.17647052
550.1185303	2.56862736
550.1185303	2.45098042
550.1229248	2.11764717
550.126709	1.70588231
550.1309815	1.84313726
550.1309815	2.17647052
550.1356201	2.68627453
550.1391602	2.84313726
550.1432495	2.72549009
550.1432495	2.54901958
550.1472778	2.37254906
550.1513672	2.50980401
550.1560059	2.82352948
550.1560059	3.33333325
550.1602783	3.37254906
550.1636963	3.11764717
550.1636963	2.70588231
550.1677856	2.52941179
550.171875	2.72549009
550.1759644	3.21568632
550.1759644	3.49019599
550.1799927	3.35294127
550.184082	3.17647052
550.1882324	2.58823538
550.1882324	2.50980401
550.1923218	2.7647059
550.1964722	3.19607854
550.2005005	3.01960778
550.2046509	2.58823538
550.2088013	2.21568632
550.2088013	2.50980401
550.2128296	2.86274505
550.216919	3.31372547
550.2210083	3.27450991
550.2210083	3.01960778
550.2251587	2.56862736
550.229187	2.52941179
550.2332764	2.58823538
550.2332764	2.9607842
550.2373047	3.33333325
550.2414551	3.25490189
550.2455444	2.54901958
550.2496338	2.70588231
550.2538452	2.92156863
550.2538452	3.56862736
550.2583008	3.58823538
550.2626343	3.41176462
550.2667236	2.92156863
550.2667236	2.54901958
550.270813	2.70588231
550.2745972	3.07843137
550.2783814	3.62745094
550.2783814	3.66666675
550.2824707	3.37254906
550.2865601	2.86274505
550.2907105	3.13725495
550.2947388	3.62745094
550.2988281	3.82352948
550.2988281	3.66666675
550.3029175	3.47058821
550.3070068	2.9607842
550.3110962	3
550.3110962	3.27450991
550.3152466	3.90196085
550.3196411	4.07843161
550.3237305	3.94117641
550.3237305	3.56862736
550.328125	3.15686274
550.3322754	3.35294127
550.3363037	4.07843161
550.3399658	3.98039222
550.3438721	3.50980401
550.3438721	2.86274505
550.3480835	2.56862736
550.3520508	2.58823538
550.3562012	2.90196085
550.3562012	2.94117641
550.3602905	2.72549009
550.3643189	2.21568632
550.3684692	1.60784316
550.3684692	1.74509799
550.3727417	2.05882359
550.376648	2.50980401
550.3808594	2.29411769
550.3853149	1.78431368
550.3892822	1.52941179
550.3892822	1.74509799
550.3936768	2.07843137
550.3978272	2.43137264
550.4019165	2.35294127
550.4019165	2.11764717
550.4053955	1.52941179
550.4094238	1.43137252
550.4135742	1.66666663
550.4135742	2.05882359
550.4176025	2.25490189
550.421814	2.09803915
550.4259033	1.2352941
550.4298706	1.09803927
550.434021	1.43137252
550.434021	1.9803921
550.4380493	2.01960778
550.4421997	1.72549021
550.4462891	1.35294116
550.4462891	1.13725495
550.4505005	1.29411769
550.4551392	1.68627453
550.4591675	2.19607854
550.4591675	2.11764717
550.4626465	1.96078432
550.4668579	1.50980389
550.4668579	1.47058821
550.4708862	1.70588231
550.4750366	2.27450991
550.479126	2.52941179
550.479126	2.45098042
550.4831543	2.17647052
550.4871826	1.74509799
550.491333	1.82352936
550.491333	2.21568632
550.4954224	2.80392146
550.4995117	2.78431368
550.5037842	2.49019599
550.5037842	2
550.5081787	1.78431368
550.5120239	1.94117641
550.5120239	2.2352941
550.5166016	2.64705873
550.5203857	2.47058821
550.5245361	2.17647052
550.5245361	1.58823526
550.5282593	1.49019611
550.5323486	1.68627453
550.536499	2.17647052
550.536499	2.45098042
550.5405884	2.2352941
550.5446777	1.88235295
550.5487061	1.60784316
550.5487061	1.64705884
550.5527954	1.84313726
550.5568848	2.31372547
550.5568848	2.47058821
550.5609741	2.07843137
550.5650635	1.70588231
550.5692749	1.47058821
550.5692749	1.66666663
550.5734863	2.13725495
550.5780029	2.49019599
550.5821533	2.37254906
550.5821533	2
550.5862427	1.62745094
550.5897827	1.50980389
550.5938721	1.82352936
550.5938721	2.39215684
550.5978394	2.86274505
550.6019287	2.82352948
550.6019287	2.47058821
550.6060181	2.05882359
550.6101074	2.27450991
550.6142578	2.7647059
550.6142578	3.45098042
550.6182861	3.58823538
550.6225586	3.25490189
550.6265259	2.78431368
550.6265259	2.58823538
550.6307373	2.7647059
550.635376	3.15686274
550.6391602	3.49019599
550.6391602	3.27450991
550.6436157	2.86274505
550.6477051	2.29411769
550.6477051	2.21568632
550.6517944	2.39215684
550.6552734	2.84313726
550.6593628	2.88235283
550.6593628	2.52941179
550.6633911	1.94117641
550.6675415	1.52941179
550.6715698	1.54901958
550.6715698	1.80392158
550.6756592	2.2352941
550.6798096	2.25490189
550.6838989	1.37254906
550.6879273	1.13725495
550.6920776	1.29411769
550.6920776	1.84313726
550.696228	2.35294127
550.7005615	2.39215684
550.7050171	2.13725495
550.7050171	1.70588231
550.7086182	1.80392158
550.7131958	2.25490189
550.7167358	2.86274505
550.7167358	3.15686274
550.7207642	3.05882359
550.7249146	2.84313726
550.7289429	2.52941179
550.7330322	2.80392146
550.7371826	3.45098042
550.7371826	3.54901958
550.741272	3.35294127
550.7453003	3.05882359
550.7494507	2.68627453
550.7494507	2.72549009
550.7536011	3.09803915
550.7576294	3.41176462
550.7617188	3.25490189
550.7617188	2.88235283
550.7658081	2.29411769
550.7699585	2.15686274
550.7740479	2.80392146
550.7780762	3.01960778
550.7821655	2.72549009
550.7821655	2.25490189
550.7862549	1.68627453
550.7904053	1.70588231
550.7944946	1.94117641
550.7944946	2.39215684
550.798584	2.49019599
550.8026733	2.19607854
550.8068848	1.7647059
550.8068848	1.60784316
550.8109131	1.62745094
550.8150024	2.13725495
550.8190918	2.56862736
550.8232422	2.29411769
550.8272705	1.68627453
550.8272705	1.64705884
550.8313599	1.92156863
550.8356323	2.43137264
550.8397827	2.78431368
550.8397827	2.52941179
550.8439941	2.19607854
550.8477783	1.88235295
550.8519287	1.94117641
550.8519287	2.19607854
550.8561401	2.80392146
550.8600464	3.0392158
550.8640747	2.45098042
550.8682251	2.47058821
550.8723755	2.98039222
550.8723755	3.88235283
550.8764038	4.58823538
550.8804932	4.54901981
550.8845825	4.33333349
550.8845825	3.62745094
550.8887329	3
550.8931885	2.21568632
550.897522	1.84313726
550.897522	1.56862748
550.9013672	1.17647064
550.9057617	0.70588237
550.9092407	0.627451
550.913269	1.27450979
550.9174194	2.09803915
550.9174194	2.27450991
550.9214478	2.11764717
550.9255981	1.68627453
550.9296875	1.52941179
550.9296875	1.68627453
550.9337158	2.09803915
550.9378052	2.62745094
550.9419556	2.62745094
550.9419556	2.43137264
550.9459839	2
550.9502564	2
550.9544067	2.90196085
550.9589233	3.19607854
550.9630737	3
550.9630737	2.68627453
550.9672241	2.47058821
550.9712524	2.56862736
550.9747925	2.80392146
550.9747925	3.33333325
550.9788818	3.47058821
550.9829712	3.25490189
550.9869995	2.84313726
550.9869995	2.54901958
550.9910889	2.64705873
550.9952393	3.0392158
550.9952393	3.37254906
550.9992676	3.29411769
551.0033569	2.84313726
551.0075073	2.33333325
551.0075073	2.2352941
551.0115967	2.17647052
551.0158081	2.72549009
551.0204468	2.92156863
