80.59554291	1.58823526
80.59554291	1.72549021
80.59956360	1.88235295
80.60379791	1.90196073
80.60778809	1.74509799
80.60778809	1.60784316
80.61186981	1.35294116
80.61589813	1.43137252
80.61997986	1.37254906
80.61997986	1.58823526
80.62410736	1.72549021
80.62825012	1.70588231
80.63240051	1.94117641
80.63240051	1.84313726
80.63635254	1.62745094
80.64050293	1.56862748
80.64050293	1.60784316
80.64468384	1.72549021
80.64879608	1.68627453
80.65291595	1.60784316
80.65291595	1.70588231
80.65691376	1.72549021
80.66101837	1.84313726
80.66520691	2.00000000
80.66520691	2.05882359
80.66915894	2.00000000
80.67325592	1.90196073
80.67735291	1.92156863
80.67735291	2.03921580
80.68147278	1.94117641
80.68560791	2.13725495
80.68560791	2.13725495
80.68974304	2.00000000
80.69374847	1.94117641
80.69787598	1.98039210
80.69787598	2.00000000
80.70199585	2.07843137
80.70603943	2.05882359
80.71013641	2.07843137
80.71013641	2.05882359
80.71427917	2.01960778
80.71842194	1.94117641
80.72253418	2.00000000
80.72253418	1.98039210
80.72653198	2.13725495
80.73079681	2.23529410
80.73079681	2.07843137
80.73480225	1.94117641
80.73892212	2.17647052
80.74288940	2.31372547
80.74288940	2.47058821
80.74701691	2.33333325
80.75114441	2.21568632
80.75530243	2.29411769
80.75530243	2.29411769
80.75928497	2.35294127
80.76340485	2.29411769
80.76751709	2.33333325
80.76751709	2.17647052
80.77158356	2.09803915
80.77569580	2.09803915
80.77569580	2.21568632
80.77964783	2.43137264
80.78384399	2.45098042
80.78804779	2.33333325
80.78804779	2.31372547
80.79216766	2.25490189
80.79614258	2.27450991
80.80027771	2.31372547
80.80027771	2.35294127
80.80438995	2.31372547
80.80850983	2.23529410
80.81263733	2.27450991
80.81678009	2.41176462
80.82080078	2.52941179
80.82080078	2.58823538
80.82488251	2.62745094
80.82902527	2.50980401
80.83304596	2.31372547
80.83304596	2.29411769
80.83715057	2.25490189
80.84127808	2.31372547
80.84541321	2.41176462
80.84541321	2.45098042
80.84937286	2.50980401
80.85350037	2.47058821
80.85766602	2.45098042
80.86179352	2.62745094
80.86585236	2.66666675
80.86585236	2.60784316
80.86985016	2.47058821
80.87397766	2.37254906
80.87813568	2.33333325
80.87813568	2.45098042
80.88224030	2.54901958
80.88625336	2.60784316
80.89037323	2.62745094
80.89037323	2.62745094
80.89453888	2.47058821
80.89865875	2.45098042
80.90279388	2.50980401
80.90676117	2.50980401
80.91091156	2.56862736
80.91091156	2.60784316
80.91504669	2.54901958
80.91904449	2.56862736
80.92315674	2.56862736
80.92315674	2.64705873
80.92730713	2.78431368
80.93142700	2.54901958
80.93550873	2.64705873
80.93550873	2.72549009
80.93951416	2.74509811
80.94382477	2.60784316
80.94777679	2.76470590
80.95195007	2.68627453
80.95603943	2.76470590
80.95603943	2.72549009
80.96002960	2.78431368
80.96413422	2.82352948
80.96826935	2.74509811
80.96826935	2.54901958
80.97241211	2.56862736
80.97640991	2.60784316
80.98050690	2.76470590
80.98050690	2.98039222
80.98462677	2.94117641
80.98879242	2.74509811
80.99275208	2.41176462
80.99688721	2.33333325
81.00100708	2.50980401
81.00100708	2.56862736
81.00516510	2.52941179
81.00915527	2.56862736
81.01327515	2.56862736
81.01327515	2.49019599
81.01738739	2.45098042
81.02153778	2.45098042
81.02566528	2.45098042
81.02566528	2.43137264
81.02979279	2.41176462
81.03376007	2.37254906
81.03791046	2.49019599
81.04203796	2.56862736
81.04615784	2.64705873
81.04615784	2.58823538
81.05015564	2.54901958
81.05425262	2.56862736
81.05838013	2.58823538
81.05838013	2.60784316
81.06237793	2.62745094
81.06652832	2.74509811
81.07079315	2.70588231
81.07079315	2.76470590
81.07476044	2.98039222
81.07889557	3.03921580
81.08290100	3.68627453
81.08702087	3.98039222
81.09114075	4.19607830
81.09114075	4.52941179
81.09528351	4.78431368
81.09928894	4.84313726
81.10339355	4.60784292
81.10339355	4.29411745
81.10753632	3.80392146
81.11165619	3.05882359
81.11572266	2.35294127
81.11572266	1.98039210
81.11972046	1.82352936
81.12385559	1.86274505
81.12385559	1.90196073
81.12799835	1.90196073
81.13211060	1.94117641
81.13623047	2.03921580
81.13623047	2.21568632
81.14024353	2.37254906
81.14435577	2.60784316
81.14852905	2.49019599
81.14852905	2.37254906
81.15265656	2.45098042
81.15677643	2.37254906
81.16073608	2.50980401
81.16073608	2.64705873
81.16492462	2.62745094
81.16902924	2.58823538
81.16902924	2.47058821
81.17301178	2.45098042
81.17712402	2.49019599
81.18125153	2.56862736
81.18125153	2.58823538
81.18537140	2.74509811
81.18939209	2.72549009
81.19351196	2.66666675
81.19351196	2.62745094
81.19763184	2.64705873
81.20175934	2.74509811
81.20590973	2.74509811
81.20590973	2.72549009
81.20986938	2.62745094
81.21399689	2.68627453
81.21399689	2.72549009
81.21815491	2.88235283
81.22228241	3.11764717
81.22644043	3.05882359
81.22644043	2.80392146
81.23036957	2.82352948
81.23451233	2.78431368
81.23860931	2.80392146
81.23860931	2.96078420
81.24274445	3.07843137
81.24674988	3.07843137
81.25088501	2.94117641
81.25088501	2.80392146
81.25507355	2.88235283
81.25913239	2.98039222
81.25913239	3.23529410
81.26313019	3.37254906
81.26728058	3.35294127
81.27142334	3.25490189
81.27142334	3.29411769
81.27545929	3.37254906
81.27943420	3.49019599
81.28365326	3.49019599
81.28365326	3.49019599
81.28772736	3.60784316
81.29180145	3.64705873
81.29601288	3.60784316
81.29601288	3.64705873
81.30001068	3.68627453
81.30410767	3.68627453
81.30410767	3.54901958
81.30823517	3.52941179
81.31237793	3.58823538
81.31637573	3.66666675
81.31637573	3.64705873
81.32051086	3.58823538
81.32463074	3.70588231
81.32877350	3.70588231
81.32877350	3.52941179
81.33276367	3.45098042
81.33686829	3.39215684
81.34101105	3.41176462
81.34514618	3.33333325
81.34932709	3.05882359
81.34932709	2.88235283
81.35324097	2.82352948
81.35738373	2.64705873
81.36151886	2.41176462
81.36151886	2.29411769
81.36558533	2.23529410
81.36971283	2.11764717
81.37370300	2.00000000
81.37370300	1.74509799
81.37785339	1.88235295
81.38198853	1.82352936
81.38610077	1.88235295
81.39015198	1.86274505
81.39427185	1.74509799
81.39427185	1.62745094
81.39839935	1.88235295
81.40251923	2.05882359
81.40650940	2.05882359
81.40650940	2.00000000
81.41064453	1.86274505
81.41474915	1.74509799
81.41890717	1.80392158
81.41890717	1.94117641
81.42287445	1.96078432
81.42695618	2.07843137
81.43108368	2.03921580
81.43520355	2.01960778
81.43935394	2.11764717
81.43935394	2.17647052
81.44336700	2.23529410
81.44745636	2.27450991
81.45158386	2.31372547
81.45158386	2.15686274
81.45577240	1.96078432
81.45973969	2.00000000
81.46388245	2.07843137
81.46388245	2.03921580
81.46801758	1.98039210
81.47214508	2.05882359
81.47617340	2.23529410
81.48027039	2.39215684
81.48438263	2.45098042
81.48438263	2.37254906
81.48849487	2.27450991
81.49249268	2.27450991
81.49674225	2.27450991
81.49674225	2.37254906
81.50074005	2.50980401
81.50489807	2.60784316
81.50901794	2.64705873
81.50901794	2.49019599
81.51301575	2.43137264
81.51715088	2.33333325
81.52125549	2.58823538
81.52539825	2.56862736
81.52952576	2.60784316
81.52952576	2.47058821
81.53350067	2.49019599
81.53767395	2.50980401
81.54178619	2.49019599
81.54178619	2.68627453
81.54589844	2.84313726
81.54988098	2.84313726
81.55399323	2.76470590
81.55399323	2.47058821
81.55812073	2.33333325
81.56224060	2.41176462
81.56629181	2.70588231
81.57038879	2.72549009
81.57450104	2.66666675
81.57450104	2.54901958
81.57861328	2.50980401
81.58277893	2.80392146
81.58677673	2.92156863
81.58677673	2.94117641
81.59088135	2.78431368
81.59503174	2.72549009
81.59914398	2.66666675
81.59914398	2.64705873
81.60312653	2.54901958
81.60725403	2.72549009
81.61137390	2.70588231
81.61546326	2.60784316
81.61959839	2.62745094
81.61959839	2.80392146
81.62371063	3.03921580
81.62776947	2.98039222
81.63196564	2.86274505
81.63196564	2.76470590
81.63586426	2.76470590
81.64002228	2.80392146
81.64411926	2.86274505
81.64411926	2.76470590
81.64820099	2.80392146
81.65237427	2.62745094
81.65237427	2.64705873
81.65638733	2.66666675
81.66049194	2.58823538
81.66462708	2.62745094
81.66462708	2.80392146
81.66876984	2.90196085
81.67276001	2.80392146
81.67686462	2.72549009
81.67686462	2.74509811
81.68099213	2.82352948
81.68511963	2.76470590
81.68926239	2.78431368
81.68926239	2.82352948
81.69326019	2.86274505
81.69736481	2.84313726
81.69736481	2.94117641
81.70150757	2.92156863
81.70564270	2.90196085
81.70977020	2.82352948
81.70977020	2.80392146
81.71375275	2.78431368
81.71788025	2.74509811
81.72203827	3.00000000
81.72203827	3.03921580
81.72602844	3.11764717
81.73012543	2.80392146
81.73425293	2.70588231
81.73425293	2.64705873
81.73835754	2.74509811
81.74248505	2.88235283
81.74248505	2.82352948
81.74649048	2.74509811
81.75075531	2.76470590
81.75479126	2.86274505
81.75479126	2.94117641
81.75888062	3.03921580
81.76287842	3.05882359
81.76699066	3.03921580
81.76699066	3.07843137
81.77112579	2.88235283
81.77526855	2.92156863
81.77939606	2.84313726
81.77939606	2.92156863
81.78336334	2.96078420
81.78746796	2.98039222
81.78746796	2.76470590
81.79151154	2.56862736
81.79566193	2.62745094
81.79976654	2.56862736
81.79976654	2.62745094
81.80386353	2.78431368
81.80799103	2.78431368
81.81211090	2.64705873
81.81211090	2.60784316
81.81613922	2.66666675
81.82025146	2.62745094
81.82438660	2.64705873
81.82438660	2.60784316
81.82851410	2.66666675
81.83264160	2.60784316
81.83264160	2.60784316
81.83676910	2.64705873
81.84075928	2.80392146
81.84487152	2.82352948
81.84487152	2.82352948
81.84901428	2.84313726
81.85299683	2.74509811
81.85712433	2.76470590
81.85712433	2.68627453
81.86124420	2.78431368
81.86535645	3.17647052
81.86949158	3.72549009
81.87348938	3.98039222
81.87776184	4.13725471
81.87776184	4.66666651
81.88172150	4.98039198
81.88591003	4.98039198
81.88988495	4.84313726
81.88988495	4.39215708
81.89400482	3.98039222
81.89813232	3.52941179
81.90226746	3.05882359
81.90226746	2.56862736
81.90625763	2.15686274
81.91039276	1.90196073
81.91449738	1.88235295
81.91864014	1.94117641
81.92276764	2.00000000
81.92276764	2.19607854
81.92665100	2.25490189
81.93077087	2.25490189
81.93494415	2.52941179
81.93494415	2.66666675
81.93904877	2.60784316
81.94314575	2.56862736
81.94722748	2.54901958
81.94722748	2.60784316
81.95136261	2.68627453
81.95551300	2.70588231
81.95964050	2.86274505
81.96376038	3.03921580
81.96773529	2.98039222
81.96773529	2.84313726
81.97190094	2.82352948
81.97600555	2.78431368
81.97998810	2.76470590
81.97998810	2.70588231
81.98410797	2.78431368
81.98822784	2.74509811
81.99235535	2.62745094
81.99235535	2.58823538
81.99636078	2.56862736
82.00050354	2.66666675
82.00460815	2.86274505
82.00872040	2.78431368
82.01287842	2.84313726
82.01287842	2.86274505
82.01683807	2.96078420
82.02097321	2.94117641
82.02510071	2.96078420
82.02510071	3.03921580
82.02924347	2.92156863
82.03321838	2.82352948
82.03738403	2.86274505
82.03738403	2.86274505
82.04148865	2.96078420
82.04561615	2.96078420
82.04973602	3.17647052
82.05370331	3.23529410
82.05782318	3.23529410
82.05782318	3.35294127
82.06197357	3.50980401
82.06612396	3.64705873
82.07009888	3.52941179
82.07009888	3.41176462
82.07423401	3.27450991
82.07836151	3.33333325
82.08248901	3.47058821
82.08248901	3.64705873
82.08647156	3.62745094
82.09074402	3.60784316
82.09472656	3.84313726
82.09890747	3.96078420
82.10301208	4.01960802
82.10301208	4.01960802
82.10697174	3.88235283
82.11111450	3.76470590
82.11519623	3.64705873
82.11519623	3.68627453
82.11933136	3.68627453
82.12331390	3.64705873
82.12747192	3.68627453
82.12747192	3.56862736
82.13160706	3.25490189
82.13569641	3.03921580
82.13971710	2.82352948
82.14389038	2.66666675
82.14801025	2.56862736
82.14801025	2.52941179
82.15213013	2.49019599
82.15612030	2.70588231
82.16025543	2.49019599
82.16025543	2.29411769
82.16429138	2.09803915
82.16840363	1.98039210
82.17259216	2.21568632
82.17259216	2.23529410
82.17678070	2.09803915
82.18089294	2.05882359
82.18089294	2.15686274
82.18486023	2.17647052
82.18896484	2.11764717
82.19309998	1.92156863
82.19309998	1.94117641
82.19707489	1.98039210
82.20122528	1.92156863
82.20533752	2.13725495
82.20533752	2.27450991
82.20935822	2.07843137
82.21345520	2.07843137
82.21772766	2.07843137
82.21772766	2.05882359
82.22172546	2.15686274
82.22586823	2.15686274
82.22586823	2.17647052
82.22982788	2.13725495
82.23398590	1.94117641
82.23806000	1.94117641
82.23806000	2.21568632
82.24219513	2.35294127
82.24620819	2.43137264
82.25032806	2.41176462
82.25032806	2.19607854
82.25447845	2.21568632
82.25861359	2.45098042
82.26273346	2.47058821
82.26273346	2.50980401
82.26671600	2.45098042
82.27082825	2.25490189
82.27082825	2.25490189
82.27495575	2.39215684
82.27910614	2.66666675
82.28323364	2.58823538
82.28323364	2.54901958
82.28717804	2.49019599
82.29127502	2.39215684
82.29537964	2.39215684
82.29537964	2.39215684
82.29937744	2.49019599
82.30368805	2.37254906
82.30769348	2.39215684
82.30769348	2.37254906
82.31182861	2.52941179
82.31598663	2.70588231
82.31598663	2.82352948
82.31996155	2.74509811
82.32408905	2.56862736
82.32820892	2.49019599
82.32820892	2.47058821
82.33235168	2.47058821
82.33634186	2.56862736
82.34044647	2.70588231
82.34044647	2.76470590
82.34458160	2.78431368
82.34873962	2.66666675
82.35285950	2.56862736
82.35285950	2.49019599
82.35681915	2.35294127
82.36095428	2.47058821
82.36095428	2.45098042
82.36509705	2.49019599
82.36922455	2.60784316
82.37322235	2.62745094
82.37322235	2.78431368
82.37739563	2.74509811
82.38149261	2.68627453
82.38562012	2.68627453
82.38562012	2.72549009
82.38972473	2.84313726
82.39373016	2.60784316
82.39786530	2.39215684
82.40200043	2.58823538
82.40612030	2.70588231
82.40612030	2.70588231
82.41012573	2.62745094
82.41423035	2.60784316
82.41834259	2.47058821
82.41834259	2.52941179
82.42250061	2.54901958
82.42646790	2.52941179
82.43072510	2.43137264
82.43072510	2.41176462
82.43472290	2.39215684
82.43887329	2.54901958
82.44300079	2.88235283
82.44696808	2.84313726
82.45111084	2.60784316
82.45111084	2.49019599
82.45527649	2.43137264
82.45938110	2.88235283
82.46336365	2.88235283
82.46336365	2.80392146
82.46750641	2.72549009
82.47161102	2.64705873
82.47575378	2.54901958
82.47575378	2.47058821
82.47972107	2.70588231
82.48385620	2.86274505
82.48794556	2.82352948
82.49206543	2.60784316
82.49619293	2.56862736
82.49619293	2.58823538
82.50021362	2.70588231
82.50431824	2.76470590
82.50845337	2.96078420
82.50845337	2.92156863
82.51258850	2.76470590
82.51675415	2.74509811
82.52072144	2.82352948
82.52072144	2.84313726
82.52484131	2.72549009
82.52900696	2.86274505
82.53311920	2.96078420
82.53710938	2.88235283
82.54122162	2.76470590
82.54122162	2.72549009
82.54537201	2.70588231
82.54943848	2.60784316
82.55345917	2.49019599
82.55345917	2.39215684
82.55772400	2.52941179
82.56172943	2.66666675
82.56585693	2.56862736
82.56585693	2.58823538
82.56986237	2.58823538
82.57398224	2.52941179
82.57811737	2.43137264
82.58224487	2.54901958
82.58637238	2.66666675
82.58637238	2.62745094
82.59036255	2.54901958
82.59448242	2.45098042
82.59864807	2.58823538
82.59864807	2.76470590
82.60274506	2.98039222
82.60673523	2.88235283
82.61085510	2.78431368
82.61085510	2.64705873
82.61493683	2.54901958
82.61906433	2.68627453
82.62306213	2.84313726
82.62722015	2.82352948
82.63133240	2.86274505
82.63133240	3.07843137
82.63543701	3.43137264
82.63943481	3.72549009
82.64375305	3.98039222
82.64375305	4.56862736
82.64774323	4.84313726
82.65187073	4.96078444
82.65599060	4.86274529
82.65599060	4.64705896
82.66001129	4.33333349
82.66408539	4.05882359
82.66824341	2.80392146
82.67237091	2.29411769
82.67643738	1.90196073
82.67643738	1.86274505
82.68043518	2.11764717
82.68456268	2.15686274
82.68871307	2.13725495
82.68871307	2.07843137
82.69271851	2.09803915
82.69680786	2.25490189
82.70095062	2.35294127
82.70095062	2.54901958
82.70507050	2.50980401
82.70924377	2.43137264
82.70924377	2.45098042
82.71323395	2.76470590
82.71736145	2.66666675
82.72151184	2.76470590
82.72151184	2.84313726
82.72560883	2.80392146
82.72973633	2.72549009
82.73371124	2.62745094
82.73371124	2.58823538
82.73780823	2.72549009
82.74193573	2.76470590
82.74605560	2.92156863
82.74605560	2.90196085
82.75007629	2.72549009
82.75418854	2.62745094
82.75418854	2.54901958
82.75833893	2.58823538
82.76245117	2.78431368
82.76661682	2.82352948
82.76661682	2.92156863
82.77073669	3.09803915
82.77471924	3.03921580
82.77883911	3.07843137
82.77883911	3.27450991
82.78288269	3.05882359
82.78699493	3.07843137
82.79111481	3.03921580
82.79111481	3.05882359
82.79524231	3.09803915
82.79931641	3.09803915
82.79931641	3.11764717
82.80329895	3.31372547
82.80740356	3.31372547
82.81150818	3.31372547
82.81150818	3.43137264
82.81569672	3.52941179
82.81967163	3.49019599
82.82382965	3.49019599
82.82382965	3.47058821
82.82793427	3.50980401
82.83211517	3.47058821
82.83623505	3.33333325
82.83623505	3.39215684
82.84020996	3.64705873
82.84436035	3.78431368
82.84436035	3.88235283
82.84852600	3.74509811
82.85260773	3.72549009
82.85673523	3.80392146
82.85673523	3.74509811
82.86073303	3.80392146
82.86483002	3.98039222
82.86895752	4.01960802
82.86895752	4.05882359
82.87295532	3.94117641
82.87712097	3.82352948
82.88123322	4.00000000
82.88123322	3.98039222
82.88535309	3.86274505
82.88948822	3.90196085
82.88948822	3.80392146
82.89346313	3.56862736
82.89760590	3.33333325
82.90171051	3.35294127
82.90171051	3.39215684
82.90586090	3.37254906
82.90988159	3.13725495
82.91394806	2.78431368
82.91394806	2.49019599
82.91809082	2.50980401
82.92223358	2.47058821
82.92633057	2.31372547
82.93033600	2.25490189
82.93453979	2.05882359
82.93453979	1.96078432
82.93860626	2.17647052
82.94274139	2.13725495
82.94670868	1.96078432
82.94670868	1.86274505
82.95084381	1.94117641
82.95499420	2.05882359
82.95911407	2.11764717
82.95911407	2.29411769
82.96310425	2.37254906
82.96720886	2.39215684
82.97137451	2.23529410
82.97547913	2.13725495
82.97959900	2.05882359
82.97959900	2.29411769
82.98373413	2.29411769
82.98767853	2.27450991
82.99179840	2.25490189
82.99179840	2.15686274
82.99592590	2.21568632
82.99995422	2.27450991
83.00408173	2.21568632
83.00408173	2.15686274
83.00817871	2.35294127
83.01232147	2.43137264
83.01649475	2.27450991
83.02044678	2.33333325
83.02473450	2.41176462
83.02473450	2.43137264
83.02873230	2.47058821
83.03271484	2.33333325
83.03687286	2.39215684
83.03687286	2.50980401
83.04096985	2.47058821
83.04508972	2.41176462
83.04920197	2.45098042
83.04920197	2.41176462
83.05319977	2.43137264
83.05732727	2.35294127
83.06147003	2.52941179
83.06560516	2.56862736
83.06970978	2.62745094
83.06970978	2.49019599
83.07372284	2.37254906
83.07784271	2.47058821
83.08197784	2.56862736
83.08197784	2.47058821
83.08611298	2.49019599
83.09009552	2.47058821
83.09421539	2.41176462
83.09421539	2.50980401
83.09838104	2.50980401
83.10248566	2.62745094
83.10646820	2.80392146
83.11070251	2.78431368
83.11470795	2.58823538
83.11470795	2.50980401
83.11883545	2.52941179
83.12295532	2.52941179
83.12704468	2.56862736
83.12704468	2.50980401
83.13109589	2.29411769
83.13521576	2.15686274
83.13936615	2.23529410
83.13936615	2.39215684
83.14334869	2.41176462
83.14744568	2.45098042
83.15161133	2.66666675
83.15573120	2.56862736
83.15985107	2.49019599
83.15985107	2.49019599
83.16384125	2.39215684
83.16798401	2.41176462
83.17210388	2.43137264
83.17210388	2.45098042
83.17607880	2.54901958
83.18019867	2.54901958
83.18432617	2.33333325
83.18432617	2.37254906
83.18848419	2.39215684
83.19260406	2.39215684
83.19670868	2.49019599
83.20070648	2.39215684
83.20486450	2.17647052
83.20486450	2.19607854
83.20897675	2.19607854
83.21298218	2.19607854
83.21708679	2.23529410
83.21708679	2.41176462
83.22123718	2.43137264
83.22536469	2.29411769
83.22948456	2.29411769
83.22948456	2.19607854
83.23345947	2.09803915
83.23767853	2.11764717
83.23767853	2.21568632
83.24167633	2.25490189
83.24579620	2.37254906
83.24994659	2.45098042
83.24994659	2.50980401
83.25395203	2.31372547
83.25804901	2.21568632
83.26219177	2.25490189
83.26219177	2.43137264
83.26622772	2.41176462
83.27032471	2.35294127
83.27447510	2.31372547
83.27447510	2.29411769
83.27861023	2.41176462
83.28270721	2.45098042
83.28270721	2.41176462
83.28670502	2.54901958
83.29084015	2.47058821
83.29496765	2.39215684
83.29496765	2.37254906
83.29907227	2.33333325
83.30307770	2.37254906
83.30714417	2.58823538
83.30714417	2.45098042
83.31125641	2.25490189
83.31545258	2.09803915
83.31949615	2.09803915
83.31949615	2.27450991
83.32371521	2.13725495
83.32770538	2.05882359
83.32770538	1.94117641
83.33184814	2.00000000
83.33597565	2.05882359
83.33996582	1.94117641
83.33996582	2.09803915
83.34408569	2.15686274
83.34822845	2.19607854
83.35235596	2.39215684
83.35235596	2.41176462
83.35634613	2.33333325
83.36045074	2.27450991
83.36469269	2.23529410
83.36469269	2.17647052
83.36869812	2.05882359
83.37283325	2.00000000
83.37283325	2.01960778
83.37683105	1.98039210
83.38096619	2.17647052
83.38509369	2.25490189
83.38509369	2.07843137
83.38922882	1.92156863
83.39321136	2.03921580
83.39733887	2.03921580
83.39733887	2.03921580
83.40148163	2.05882359
83.40560150	2.07843137
83.40974426	2.47058821
83.40974426	2.72549009
83.41371155	2.98039222
83.41783142	3.31372547
83.41783142	3.62745094
83.42198181	4.05882359
83.42606354	4.39215708
83.43006897	4.62745094
83.43006897	4.43137264
83.43419647	3.96078420
83.43832397	3.41176462
83.44243622	2.90196085
83.44243622	2.25490189
83.44647217	1.70588231
83.45072174	1.29411769
83.45472717	1.11764705
83.45884705	1.19607842
83.46298218	1.27450979
83.46298218	1.43137252
83.46694946	1.60784316
83.47110748	1.62745094
83.47519684	1.62745094
83.47519684	1.62745094
83.47934723	1.66666663
83.48333740	1.50980389
83.48738098	1.84313726
83.48738098	1.96078432
83.49155426	1.92156863
83.49565887	1.80392158
83.49987030	1.78431368
83.50386047	1.78431368
83.50795746	1.94117641
83.50795746	1.98039210
83.51210022	1.80392158
83.51615143	1.88235295
83.52021027	1.94117641
83.52021027	2.01960778
83.52433014	2.00000000
83.52848053	2.03921580
83.53258514	2.03921580
83.53258514	2.05882359
83.53671265	2.09803915
83.54068756	2.09803915
83.54483032	2.17647052
83.54893494	2.05882359
83.55307007	1.82352936
83.55307007	1.88235295
83.55706787	2.03921580
83.56121826	2.15686274
83.56533813	2.21568632
83.56533813	2.17647052
83.56943512	2.09803915
83.57345581	2.17647052
83.57772827	2.13725495
83.57772827	2.17647052
83.58172607	2.25490189
83.58584595	2.31372547
83.58984375	2.29411769
83.59396362	2.21568632
83.59811401	2.35294127
83.59811401	2.62745094
83.60221863	2.70588231
83.60634613	2.82352948
83.61028290	2.76470590
83.61028290	2.68627453
83.61440277	2.78431368
83.61853027	2.94117641
83.62267303	2.96078420
83.62267303	3.03921580
83.62666321	3.00000000
83.63079834	2.86274505
83.63491821	2.96078420
83.63909912	2.94117641
83.64321899	3.11764717
83.64321899	3.29411769
83.64719391	3.19607854
83.65132141	2.88235283
83.65546417	2.72549009
83.65546417	2.60784316
83.65962982	2.78431368
83.66371918	2.92156863
83.66768646	2.64705873
83.66768646	2.37254906
83.67184448	2.31372547
83.67593384	2.15686274
83.67993927	2.11764717
83.68407440	2.15686274
83.68820190	2.07843137
83.68820190	1.90196073
83.69232178	1.78431368
83.69632721	1.64705884
83.70044708	1.52941179
83.70044708	1.52941179
83.70456696	1.54901958
83.70871735	1.47058821
83.71284485	1.35294116
83.71284485	1.41176474
83.71683502	1.47058821
83.72098541	1.47058821
83.72507477	1.23529410
83.72921753	1.27450979
83.73333740	1.11764705
83.73333740	1.07843137
83.73728180	1.11764705
83.74140167	1.31372547
83.74552155	1.17647064
83.74552155	0.90196079
83.74967957	1.09803927
83.75367737	1.37254906
83.75777435	1.27450979
83.75777435	1.29411769
83.76191711	1.43137252
83.76609802	1.56862748
83.76609802	1.50980389
83.77007294	1.49019611
83.77420807	1.47058821
83.77832031	1.47058821
83.77832031	1.60784316
83.78248596	1.68627453
83.78646851	1.74509799
83.79071808	1.80392158
83.79071808	1.74509799
83.79470062	1.58823526
83.79877472	1.50980389
83.80290222	1.54901958
83.80290222	1.54901958
83.80689240	1.56862748
83.81105042	1.60784316
83.81105042	1.66666663
83.81518555	1.66666663
83.81928253	1.76470590
83.82339478	1.68627453
83.82339478	1.60784316
83.82739258	1.70588231
83.83151245	1.64705884
83.83570862	1.68627453
83.83570862	1.74509799
83.83969879	1.84313726
83.84379578	1.86274505
83.84795380	1.92156863
83.84795380	2.09803915
83.85208893	2.05882359
83.85620880	1.92156863
83.85620880	1.92156863
83.86018372	1.98039210
83.86430359	1.94117641
83.86843109	1.94117641
83.86843109	1.96078432
83.87258148	1.94117641
83.87669373	1.90196073
83.88069153	1.90196073
83.88069153	2.01960778
83.88482666	2.13725495
83.88896942	2.21568632
83.89308167	2.13725495
83.89308167	2.05882359
83.89707184	2.00000000
83.90119171	2.09803915
83.90119171	2.23529410
83.90531158	2.35294127
83.90947723	2.25490189
83.91358185	2.05882359
83.91358185	2.05882359
83.91759491	2.15686274
83.92170715	2.27450991
83.92580414	2.25490189
83.92580414	2.25490189
83.92980957	2.15686274
83.93392944	2.17647052
83.93808746	1.94117641
83.94219971	2.05882359
83.94632721	2.09803915
83.94632721	2.07843137
83.95030975	2.09803915
83.95445251	2.00000000
83.95858002	1.98039210
83.95858002	2.03921580
83.96270752	2.15686274
83.96669769	2.29411769
83.97084808	2.29411769
83.97084808	2.19607854
83.97493744	2.23529410
83.97909546	2.41176462
83.98321533	2.54901958
83.98717499	2.43137264
83.99130249	2.37254906
83.99130249	2.25490189
83.99542999	2.17647052
83.99958038	2.17647052
84.00370789	2.29411769
84.00370789	2.41176462
84.00768280	2.39215684
84.01181793	2.23529410
84.01595306	2.27450991
84.01595306	2.19607854
84.01995087	2.23529410
84.02405548	2.35294127
84.02819824	2.19607854
84.03233337	2.25490189
84.03645325	2.25490189
84.03645325	2.27450991
84.04043579	2.27450991
84.04457855	2.19607854
84.04868317	2.05882359
84.04868317	2.07843137
84.05280304	2.13725495
84.05680847	2.17647052
84.06095123	2.21568632
84.06095123	2.25490189
84.06509399	2.15686274
84.06917572	2.03921580
84.07319641	1.88235295
84.07730865	2.09803915
84.08145142	2.23529410
84.08145142	2.19607854
84.08558655	2.11764717
84.08970642	1.96078432
84.09366608	1.94117641
84.09366608	1.86274505
84.09784698	1.92156863
84.10196686	1.96078432
84.10608673	2.07843137
84.10608673	2.19607854
84.11004639	2.25490189
84.11418152	2.21568632
84.11830902	2.31372547
84.12244415	2.29411769
84.12657166	2.41176462
84.12657166	2.58823538
84.13067627	2.74509811
84.13469696	3.00000000
84.13880920	3.27450991
84.13880920	3.84313726
84.14295959	4.19607830
84.14694977	4.31372547
84.15106964	4.27450991
84.15106964	4.09803915
84.15518951	3.74509811
84.15935516	3.27450991
84.16333771	2.19607854
84.16743469	1.66666663
84.17155457	1.29411769
84.17155457	1.15686274
84.17567444	1.19607842
84.17980194	1.33333337
84.18379974	1.54901958
84.18379974	1.58823526
84.18795776	1.66666663
84.19207764	1.76470590
84.19619751	1.84313726
84.19619751	1.90196073
84.20018005	2.15686274
84.20431519	2.23529410
84.20843506	2.07843137
84.21257782	1.96078432
84.21670532	2.03921580
84.21670532	2.23529410
84.22073364	2.17647052
84.22480774	2.03921580
84.22893524	2.17647052
84.22893524	2.15686274
84.23307800	2.05882359
84.23702240	1.94117641
84.24114227	1.92156863
84.24114227	2.13725495
84.24526978	2.23529410
84.24943542	2.17647052
84.25341797	2.05882359
84.25764465	2.09803915
84.26165771	2.21568632
84.26165771	2.54901958
84.26583099	2.68627453
84.26982117	2.56862736
84.27392578	2.47058821
84.27392578	2.29411769
84.27806091	2.33333325
84.28221893	2.45098042
84.28633118	2.49019599
84.28633118	2.52941179
84.29029846	2.49019599
84.29441833	2.56862736
84.29441833	2.82352948
84.29854584	2.86274505
84.30272675	2.78431368
84.30684662	2.78431368
84.30684662	2.62745094
84.31082916	2.50980401
84.31492615	2.39215684
84.31900024	2.43137264
84.31900024	2.60784316
84.32301331	2.84313726
84.32711792	2.90196085
84.33121490	2.80392146
84.33121490	2.86274505
84.33544159	2.84313726
84.33956146	2.96078420
84.33956146	3.07843137
84.34370422	3.05882359
84.34767151	3.15686274
84.35182190	3.05882359
84.35182190	3.11764717
84.35594177	3.23529410
84.35987854	3.33333325
84.36399841	3.37254906
84.36399841	3.37254906
84.36811829	3.45098042
84.37227631	3.23529410
84.37641144	3.03921580
84.37641144	3.13725495
84.38039398	3.11764717
84.38470459	3.07843137
84.38470459	3.00000000
84.38867188	2.82352948
84.39281464	2.62745094
84.39694214	2.50980401
84.39694214	2.29411769
84.40091705	2.29411769
84.40505219	2.17647052
84.40920258	2.05882359
84.40920258	1.86274505
84.41318512	1.66666663
84.41728973	1.47058821
84.42137909	1.62745094
84.42137909	1.64705884
84.42549896	1.54901958
84.42962646	1.49019611
84.42962646	1.27450979
84.43363953	1.35294116
84.43778992	1.68627453
84.44189453	1.64705884
84.44189453	1.70588231
84.44602203	1.62745094
84.45005798	1.45098042
84.45417023	1.39215684
84.45417023	1.35294116
84.45829010	1.29411769
84.46243286	1.39215684
84.46656799	1.50980389
84.47071075	1.54901958
84.47465515	1.47058821
84.47465515	1.43137252
84.47882080	1.49019611
84.48294067	1.54901958
84.48694611	1.66666663
84.48694611	1.58823526
84.49106598	1.66666663
84.49517059	1.70588231
84.49935150	1.68627453
84.49935150	1.82352936
84.50328064	1.76470590
84.50741577	1.68627453
84.51156616	1.78431368
84.51568604	1.80392158
84.51981354	1.84313726
84.51981354	1.96078432
84.52378082	2.03921580
84.52793884	2.07843137
84.53207397	2.05882359
84.53207397	1.96078432
84.53618622	1.92156863
84.54016113	2.01960778
84.54428101	2.03921580
84.54428101	2.01960778
84.54839325	1.90196073
84.55252075	2.03921580
84.55666351	2.03921580
84.56065369	2.09803915
84.56481171	2.13725495
84.56481171	2.07843137
84.56892395	2.13725495
84.57306671	2.23529410
84.57703400	2.25490189
84.57703400	2.29411769
84.58117676	2.39215684
84.58528900	2.39215684
84.58943939	2.39215684
84.58943939	2.25490189
84.59343719	2.19607854
84.59768677	2.29411769
84.60168457	2.45098042
84.60581207	2.45098042
84.60989380	2.39215684
84.60989380	2.37254906
84.61388397	2.33333325
84.61801147	2.39215684
84.62215424	2.60784316
84.62215424	2.56862736
84.62627411	2.50980401
84.63027191	2.47058821
84.63439941	2.33333325
84.63439941	2.29411769
84.63858032	2.21568632
84.64269257	2.21568632
84.64669800	2.60784316
84.65080261	2.49019599
84.65491486	2.37254906
84.65491486	2.27450991
84.65906525	2.25490189
84.66307831	2.43137264
84.66719055	2.39215684
84.66719055	2.45098042
84.67126465	2.62745094
84.67537689	2.68627453
84.67950439	2.62745094
84.67950439	2.58823538
84.68363953	2.58823538
84.68765259	2.43137264
84.69178009	2.33333325
84.69589996	2.35294127
84.70001221	2.47058821
84.70001221	2.58823538
84.70405579	2.64705873
84.70818329	2.62745094
84.71233368	2.41176462
84.71233368	2.25490189
84.71644592	2.27450991
84.72044373	2.52941179
84.72469330	2.54901958
84.72469330	2.49019599
84.72867584	2.43137264
84.73286438	2.25490189
84.73675537	2.31372547
84.74088287	2.54901958
84.74500275	2.64705873
84.74500275	2.74509811
84.74916077	2.72549009
84.75315857	2.50980401
84.75725555	2.60784316
84.75725555	2.60784316
84.76140594	2.62745094
84.76557159	2.60784316
84.76969147	2.58823538
84.76969147	2.56862736
84.77366638	2.49019599
84.77780151	2.56862736
84.77780151	2.62745094
84.78198242	2.72549009
84.78606415	2.76470590
84.79019928	2.64705873
84.79019928	2.56862736
84.79418182	2.56862736
84.79828644	2.64705873
84.80241394	2.76470590
84.80241394	2.72549009
84.80641174	2.56862736
84.81068420	2.54901958
84.81468964	2.52941179
84.81468964	2.41176462
84.81879425	2.35294127
84.82291412	2.39215684
84.82291412	2.27450991
84.82685852	2.21568632
84.83097839	2.17647052
84.83509827	2.19607854
84.83509827	2.35294127
84.83924866	2.50980401
84.84331512	2.66666675
84.84741211	2.56862736
84.84741211	2.49019599
84.85156250	2.35294127
84.85569000	2.25490189
84.85977936	2.23529410
84.85977936	2.31372547
84.86378479	2.39215684
84.86790466	2.39215684
84.86790466	2.33333325
84.87206268	2.31372547
84.87619781	2.47058821
84.88028717	2.56862736
84.88028717	2.58823538
84.88430023	2.54901958
84.88842010	2.56862736
84.89253998	2.56862736
84.89253998	2.60784316
84.89669800	2.60784316
84.90066528	2.98039222
84.90474701	3.39215684
84.90474701	3.49019599
84.90895844	3.98039222
84.91306305	4.45098019
84.91306305	4.68627453
84.91705322	4.64705896
84.92121124	4.56862736
84.92533112	4.25490189
84.92533112	3.68627453
84.92941284	2.94117641
84.93341827	2.25490189
84.93772888	1.82352936
84.93772888	1.66666663
84.94166565	1.50980389
84.94584656	1.52941179
84.94994354	1.64705884
84.94994354	1.82352936
84.95391083	1.88235295
84.95806885	1.96078432
84.95806885	2.09803915
84.96218872	2.17647052
84.96630859	2.15686274
84.97032166	2.07843137
84.97032166	2.13725495
84.97442627	2.17647052
84.97853851	2.21568632
84.98271179	2.31372547
84.98271179	2.23529410
84.98670959	2.33333325
84.99083710	2.25490189
84.99495697	2.13725495
84.99904633	2.31372547
85.00320435	2.43137264
85.00320435	2.25490189
85.00717926	2.54901958
85.01129913	2.68627453
85.01543427	2.54901958
85.01543427	2.45098042
85.01956940	2.52941179
85.02368927	2.58823538
85.02766418	2.58823538
85.02766418	2.50980401
85.03181458	2.39215684
85.03593445	2.35294127
85.04006195	2.62745094
85.04404449	2.64705873
85.04807281	2.70588231
85.04807281	2.70588231
85.05223083	2.70588231
85.05634308	2.62745094
85.06049347	2.70588231
85.06049347	2.66666675
85.06470490	2.70588231
85.06864929	2.72549009
85.07280731	2.78431368
85.07280731	2.88235283
85.07679749	2.76470590
85.08091736	2.80392146
85.08504486	3.33333325
85.08918762	3.21568632
85.09329987	3.25490189
85.09329987	3.19607854
85.09727478	3.21568632
85.10142517	3.33333325
85.10555267	3.27450991
85.10555267	3.45098042
85.10965729	3.49019599
85.11366272	3.35294127
85.11778259	3.27450991
85.11778259	3.41176462
85.12192535	3.50980401
85.12605286	3.47058821
85.13014984	3.47058821
85.13414764	3.47058821
85.13829803	3.52941179
85.13829803	3.70588231
85.14243317	3.82352948
85.14655304	3.54901958
85.15068054	3.27450991
85.15068054	3.27450991
85.15468597	3.31372547
85.15878296	3.23529410
85.16292572	3.21568632
85.16292572	3.17647052
85.16690826	3.01960778
85.17098999	2.92156863
85.17511749	2.47058821
85.17923737	2.43137264
85.18338013	2.43137264
85.18338013	2.33333325
85.18739319	2.13725495
85.19148254	1.94117641
85.19561768	1.88235295
85.19561768	1.86274505
85.19980621	1.76470590
85.20377350	1.86274505
85.20789337	2.07843137
85.20789337	1.98039210
85.21204376	1.86274505
85.21617126	1.88235295
85.22020721	1.90196073
85.22428894	2.00000000
85.22840118	1.94117641
85.22840118	1.88235295
85.23250580	1.84313726
85.23664093	1.98039210
85.24064636	2.03921580
85.24064636	2.03921580
85.24478912	2.07843137
85.24891663	2.01960778
85.25301361	2.00000000
85.25301361	1.90196073
85.25702667	2.00000000
85.26115417	2.23529410
85.26527405	2.03921580
85.26942444	2.07843137
85.27355194	2.03921580
85.27355194	2.03921580
85.27767181	2.15686274
85.28170776	2.29411769
85.28578186	2.23529410
85.28578186	2.31372547
85.28978729	2.17647052
85.29389954	2.09803915
85.29798126	2.05882359
85.29798126	2.17647052
85.30210876	2.21568632
85.30624390	2.21568632
85.30624390	2.13725495
85.31025696	2.11764717
85.31437683	2.31372547
85.31862640	2.35294127
85.31862640	2.39215684
85.32268524	2.25490189
85.32668304	2.33333325
85.33080292	2.37254906
85.33080292	2.37254906
85.33482361	2.33333325
85.33892059	2.27450991
85.34310150	2.29411769
85.34310150	2.37254906
85.34714508	2.43137264
85.35125732	2.41176462
85.35125732	2.37254906
85.35541534	2.39215684
85.35947418	2.41176462
85.36360931	2.58823538
85.36360931	2.70588231
85.36759186	2.52941179
85.37174988	2.39215684
85.37589264	2.31372547
85.37589264	2.33333325
85.37987518	2.39215684
85.38401794	2.43137264
85.38813782	2.50980401
85.38813782	2.45098042
85.39228821	2.49019599
85.39640808	2.23529410
85.39640808	2.17647052
85.40038300	2.31372547
85.40465546	2.62745094
85.40863800	2.66666675
85.40863800	2.60784316
85.41278076	2.58823538
85.41677856	2.52941179
85.42089081	2.45098042
85.42089081	2.62745094
85.42501831	2.78431368
85.42915344	2.66666675
85.43328857	2.66666675
85.43328857	2.60784316
85.43729401	2.56862736
85.44139862	2.62745094
85.44139862	2.54901958
85.44553375	2.49019599
85.44967651	2.50980401
85.45379639	2.41176462
85.45379639	2.35294127
85.45779419	2.41176462
85.46189117	2.39215684
85.46605682	2.29411769
85.46605682	2.56862736
85.47005463	2.74509811
85.47415924	2.66666675
85.47830200	2.54901958
85.47830200	2.60784316
85.48239136	2.60784316
85.48651886	2.58823538
85.48651886	2.58823538
85.49064636	2.56862736
85.49465179	2.56862736
85.49875641	2.45098042
85.49875641	2.54901958
85.50288391	2.84313726
85.50688171	2.76470590
85.51099396	2.64705873
85.51099396	2.66666675
85.51515198	2.56862736
85.51929474	2.50980401
85.52341461	2.62745094
85.52742004	2.68627453
85.53170776	2.70588231
85.53170776	2.62745094
85.53566742	2.62745094
85.53978729	2.68627453
85.54392242	2.64705873
85.54392242	2.74509811
85.54788971	2.64705873
85.55202484	2.62745094
85.55614471	2.56862736
85.55614471	2.49019599
85.56018066	2.66666675
85.56429291	2.72549009
85.56841278	2.98039222
85.57251740	2.90196085
85.57668304	2.70588231
85.57668304	2.64705873
85.58065033	2.70588231
85.58479309	2.84313726
85.58889008	2.74509811
85.58889008	2.72549009
85.59304047	2.80392146
85.59703827	2.68627453
85.60115051	2.66666675
85.60115051	2.62745094
85.60527802	2.49019599
85.60939026	2.49019599
85.61351776	2.33333325
85.61763763	2.25490189
85.62165833	2.43137264
85.62165833	2.54901958
85.62580109	2.52941179
85.62988281	2.43137264
85.63390350	2.37254906
85.63390350	2.27450991
85.63802338	2.31372547
85.64217377	2.54901958
85.64629364	2.60784316
85.64629364	2.50980401
85.65030670	2.47058821
85.65441895	2.23529410
85.65850830	2.43137264
85.66267395	2.47058821
85.66679382	2.50980401
85.66679382	2.43137264
85.67076111	2.37254906
85.67489624	2.29411769
85.67901611	2.31372547
85.67901611	2.43137264
85.68315887	2.47058821
85.68716431	2.60784316
85.69126129	2.54901958
85.69126129	2.60784316
85.69540405	2.82352948
85.69954681	3.19607854
85.70366669	3.78431368
85.70764160	4.15686274
85.71177673	4.43137264
85.71177673	4.54901981
85.71584320	4.52941179
85.72004700	4.41176462
85.72402954	4.13725471
85.72402954	3.74509811
85.72814178	3.07843137
85.73226166	2.33333325
85.73638916	1.90196073
85.73638916	1.66666663
85.74038696	1.50980389
85.74465942	1.60784316
85.74865723	1.68627453
85.75277710	1.84313726
85.75690460	1.86274505
85.75690460	1.96078432
85.76088715	2.01960778
85.76501465	2.13725495
85.76914978	2.11764717
85.76914978	1.98039210
85.77329254	1.98039210
85.77727509	2.13725495
85.78142548	2.15686274
85.78142548	2.23529410
85.78553772	2.21568632
85.78966522	2.31372547
85.79364014	2.29411769
85.79776001	2.19607854
85.80188751	2.19607854
85.80188751	2.31372547
85.80601501	2.41176462
85.81021881	2.45098042
85.81414795	2.45098042
85.81414795	2.33333325
85.81826782	2.27450991
85.82242584	2.37254906
85.82653809	2.50980401
85.82653809	2.50980401
85.83066559	2.43137264
85.83464050	2.23529410
85.83464050	2.29411769
85.83876801	2.50980401
85.84296417	2.60784316
85.84700775	2.62745094
85.84700775	2.50980401
85.85097504	2.45098042
85.85510254	2.41176462
85.85919189	2.45098042
85.85919189	2.62745094
85.86333466	2.50980401
85.86737061	2.62745094
85.87166595	2.72549009
85.87166595	2.66666675
85.87565613	2.58823538
85.87977600	2.70588231
85.87977600	2.88235283
85.88377380	2.94117641
85.88789368	3.07843137
85.89202118	2.92156863
85.89202118	2.94117641
85.89615631	2.94117641
85.90014648	2.92156863
85.90430450	3.11764717
85.90430450	3.29411769
85.90838623	3.35294127
85.91254425	3.25490189
85.91666412	3.19607854
85.91666412	3.27450991
85.92063141	3.37254906
85.92475128	3.43137264
85.92475128	3.49019599
85.92887878	3.41176462
85.93302155	3.31372547
85.93715668	3.15686274
85.93715668	3.37254906
85.94113922	3.54901958
85.94525909	3.37254906
85.94941711	3.50980401
85.94941711	3.39215684
85.95339966	3.11764717
85.95766449	2.80392146
85.96164703	2.74509811
85.96164703	2.68627453
85.96578217	2.50980401
85.96990967	2.35294127
85.96990967	2.29411769
85.97388458	2.05882359
85.97801971	2.01960778
85.98212433	2.15686274
85.98212433	2.07843137
85.98625183	1.96078432
85.99024963	1.90196073
85.99439240	1.74509799
85.99439240	1.70588231
85.99852753	1.70588231
86.00263214	1.60784316
86.00675201	1.56862748
86.00675201	1.62745094
86.01077271	1.58823526
86.01487732	1.47058821
86.01487732	1.37254906
86.01901245	1.43137252
86.02316284	1.49019611
86.02716064	1.47058821
86.02716064	1.43137252
86.03131866	1.49019611
86.03540802	1.50980389
86.03953552	1.58823526
86.03953552	1.70588231
86.04362488	1.58823526
86.04762268	1.45098042
86.05175018	1.41176474
86.05589294	1.50980389
86.06002045	1.70588231
86.06002045	1.66666663
86.06399536	1.66666663
86.06814575	1.76470590
86.07227325	1.92156863
86.07227325	1.84313726
86.07640839	1.78431368
86.08039856	1.82352936
86.08465576	1.78431368
86.08465576	1.74509799
86.08863831	1.66666663
86.09281921	1.56862748
86.09690094	1.66666663
86.10087585	1.68627453
86.10503387	1.74509799
86.10503387	1.78431368
86.10909271	1.74509799
86.11322021	1.68627453
86.11721039	1.66666663
86.11721039	1.76470590
86.12138367	1.82352936
86.12549591	1.80392158
86.12961578	1.76470590
86.12961578	1.84313726
86.13364410	1.92156863
86.13774872	1.82352936
86.14189148	2.00000000
86.14603424	2.05882359
86.15015411	1.94117641
86.15015411	1.92156863
86.15417480	1.84313726
86.15827179	1.78431368
86.16239166	1.82352936
86.16239166	2.03921580
86.16652679	2.19607854
86.17062378	2.11764717
86.17462921	2.05882359
86.17462921	1.90196073
86.17874908	1.94117641
86.18290710	2.03921580
86.18691254	2.01960778
86.19100189	1.96078432
86.19514465	1.82352936
86.19514465	1.84313726
86.19933319	1.86274505
86.20339966	1.78431368
86.20738983	1.80392158
86.20738983	1.78431368
86.21165466	1.74509799
86.21563721	1.82352936
86.21977234	1.90196073
86.21977234	1.92156863
86.22374725	1.88235295
86.22788239	1.80392158
86.23197174	1.64705884
86.23609161	1.74509799
86.24022675	1.74509799
86.24022675	1.82352936
86.24424744	2.01960778
86.24835205	2.00000000
86.25248718	2.00000000
86.25248718	2.00000000
86.25661469	1.94117641
86.26063538	1.92156863
86.26473999	1.94117641
86.26473999	1.84313726
86.26889038	1.66666663
86.27302551	1.64705884
86.27703094	1.62745094
86.28114319	1.70588231
86.28525543	1.80392158
86.28525543	1.94117641
86.28940582	1.80392158
86.29335022	1.70588231
86.29758453	1.64705884
86.29758453	1.74509799
86.30155945	1.86274505
86.30572510	1.96078432
86.30986786	1.94117641
86.30986786	1.90196073
86.31385803	1.82352936
86.31799316	1.98039210
86.32209778	1.84313726
86.32627106	1.90196073
86.33039856	1.86274505
86.33039856	1.68627453
86.33437347	1.66666663
86.33850098	1.72549021
86.34260559	1.82352936
86.34260559	1.84313726
86.34664917	1.68627453
86.35066986	1.56862748
86.35488892	1.54901958
86.35488892	1.64705884
86.35900116	1.78431368
86.36312866	1.86274505
86.36312866	1.86274505
86.36711884	1.90196073
86.37127686	1.76470590
86.37538910	1.60784316
86.37538910	1.54901958
86.37950897	1.74509799
86.38362122	2.09803915
86.38762665	2.19607854
86.38762665	2.13725495
86.39177704	2.05882359
86.39590454	2.07843137
86.40003204	2.29411769
86.40003204	2.29411769
86.40402985	2.23529410
86.40813446	2.25490189
86.40813446	2.17647052
86.41226196	2.00000000
86.41639709	1.88235295
86.42049408	1.88235295
86.42049408	2.11764717
86.42462158	2.19607854
86.42861938	2.21568632
86.43276978	2.00000000
86.43276978	1.84313726
86.43678284	1.76470590
86.44087982	1.88235295
86.44501495	2.05882359
86.44501495	2.03921580
86.44911957	1.94117641
86.45326996	1.68627453
86.45326996	1.58823526
86.45724487	1.70588231
86.46139526	1.94117641
86.46553040	1.96078432
86.46553040	1.98039210
86.46965027	1.92156863
86.47364044	1.96078432
86.47775269	1.94117641
86.47775269	1.90196073
86.48187256	1.84313726
86.48599243	1.90196073
86.49011993	2.00000000
86.49011993	2.09803915
86.49414063	2.01960778
86.49829102	2.01960778
86.49829102	2.13725495
86.50236511	2.19607854
86.50651550	2.15686274
86.51065063	2.11764717
86.51065063	2.01960778
86.51463318	2.01960778
86.51875305	2.09803915
86.52291107	2.33333325
86.52291107	2.47058821
86.52698517	2.70588231
86.53099823	3.11764717
86.53512573	3.35294127
86.53512573	3.58823538
86.53925323	3.94117641
86.54336548	4.21568632
86.54336548	4.27450991
86.54736328	4.09803915
86.55162048	3.86274505
86.55563354	3.27450991
86.55563354	2.68627453
86.55972290	2.15686274
86.56369781	1.66666663
86.56787109	1.43137252
86.56787109	1.17647064
86.57202148	1.00000000
86.57614899	1.09803927
86.58027649	1.64705884
86.58425140	1.76470590
86.58836365	1.80392158
86.58836365	1.96078432
86.59254456	1.94117641
86.59664154	1.92156863
86.60065460	1.94117641
86.60065460	2.05882359
86.60478973	2.03921580
86.60881042	1.98039210
86.61296082	1.94117641
86.61296082	1.98039210
86.61699677	2.00000000
86.62118530	2.13725495
86.62524414	2.19607854
86.62937927	2.23529410
86.63349915	2.19607854
86.63349915	2.19607854
86.63762665	2.15686274
86.64163208	2.19607854
86.64572144	2.33333325
86.64572144	2.54901958
86.64987183	2.50980401
86.65387726	2.45098042
86.65798187	2.50980401
86.65798187	2.62745094
86.66211700	2.47058821
86.66626740	2.41176462
86.67033386	2.35294127
86.67433929	2.37254906
86.67858887	2.35294127
86.67858887	2.45098042
86.68260956	2.52941179
86.68674469	2.49019599
86.69071198	2.45098042
86.69071198	2.39215684
86.69485474	2.35294127
86.69902802	2.41176462
86.70314789	2.58823538
86.70314789	2.66666675
86.70713806	2.72549009
86.71125031	2.68627453
86.71540833	2.70588231
86.71951294	2.78431368
86.72363281	2.84313726
86.72363281	2.90196085
86.72760773	2.84313726
86.73171234	2.90196085
86.73583221	3.07843137
86.73583221	3.19607854
86.73995972	3.25490189
86.74398041	3.25490189
86.74810028	3.21568632
86.74810028	3.17647052
86.75221252	3.23529410
86.75635529	3.27450991
86.76038361	3.43137264
86.76463318	3.45098042
86.76863098	3.45098042
86.76863098	3.33333325
86.77276611	3.33333325
86.77674866	3.19607854
86.78089142	3.07843137
86.78089142	2.94117641
86.78499603	2.86274505
86.78912354	2.66666675
86.79320526	2.58823538
86.79320526	2.50980401
86.79720306	2.35294127
86.80133057	2.37254906
86.80546570	2.07843137
86.80959320	2.01960778
86.81372833	1.90196073
86.81372833	1.70588231
86.81772614	1.64705884
86.82189178	1.76470590
86.82598877	1.76470590
86.82598877	1.72549021
86.83013916	1.50980389
86.83411407	1.52941179
86.83823395	1.56862748
86.83823395	1.56862748
86.84241486	1.47058821
86.84651947	1.41176474
86.85063171	1.37254906
86.85459137	1.47058821
86.85873413	1.47058821
86.85873413	1.62745094
86.86280823	1.52941179
86.86691284	1.50980389
86.87091064	1.47058821
86.87091064	1.45098042
86.87504578	1.47058821
86.87923431	1.47058821
86.88337708	1.56862748
86.88337708	1.62745094
86.88735199	1.68627453
86.89162445	1.80392158
86.89162445	1.64705884
86.89562225	1.66666663
86.89974976	1.84313726
86.90391541	1.80392158
86.90391541	1.92156863
86.90785980	2.07843137
86.91197205	1.96078432
86.91613770	1.92156863
86.91613770	1.96078432
86.92005157	2.05882359
86.92417908	2.01960778
86.92832947	2.07843137
86.92832947	2.15686274
86.93247986	1.98039210
86.93659210	1.82352936
86.93659210	1.82352936
86.94061279	1.94117641
86.94474030	2.05882359
86.94887543	2.09803915
86.94887543	2.15686274
86.95300293	2.21568632
86.95713043	2.19607854
86.96110535	2.17647052
86.96110535	2.21568632
86.96532440	2.13725495
86.96937561	2.09803915
86.97349548	2.05882359
86.97349548	2.13725495
86.97761536	2.23529410
86.98160553	2.29411769
86.98160553	2.17647052
86.98573303	2.11764717
86.98986053	2.15686274
86.99400330	2.13725495
86.99400330	2.07843137
86.99801636	2.11764717
87.00210571	2.39215684
87.00624847	2.39215684
87.00624847	2.31372547
87.01025391	2.13725495
87.01435852	1.90196073
87.01863861	2.07843137
87.01863861	2.23529410
87.02264404	2.41176462
87.02673340	2.35294127
87.02673340	2.47058821
87.03073120	2.35294127
87.03488922	2.29411769
87.03899384	2.35294127
87.03899384	2.37254906
87.04315186	2.35294127
87.04710388	2.45098042
87.05127716	2.43137264
87.05127716	2.41176462
87.05538177	2.35294127
87.05952454	2.43137264
87.06365967	2.35294127
87.06762695	2.33333325
87.07175446	2.31372547
87.07175446	2.23529410
87.07588196	2.23529410
87.08000946	2.27450991
87.08413696	2.47058821
87.08413696	2.39215684
87.08811951	2.27450991
87.09225464	2.29411769
87.09638214	2.29411769
87.09638214	2.43137264
87.10037994	2.54901958
87.10466003	2.47058821
87.10865021	2.35294127
87.11277771	2.37254906
87.11692047	2.35294127
87.11692047	2.43137264
87.12091827	2.50980401
87.12500000	2.47058821
87.12917328	2.49019599
87.12917328	2.62745094
87.13326263	2.58823538
87.13723755	2.58823538
87.14135742	2.54901958
87.14135742	2.58823538
87.14550781	2.56862736
87.14963531	2.50980401
87.15377808	2.49019599
87.15772247	2.41176462
87.16188049	2.33333325
87.16188049	2.35294127
87.16601563	2.43137264
87.17007446	2.29411769
87.17420197	2.21568632
87.17420197	2.25490189
87.17819977	2.39215684
87.18235779	2.64705873
87.18647003	2.66666675
87.18647003	2.58823538
87.19057465	2.49019599
87.19457245	2.58823538
87.19873810	2.64705873
87.20288849	2.68627453
87.20700836	2.80392146
87.20700836	2.62745094
87.21099091	2.49019599
87.21512604	2.60784316
87.21923828	2.72549009
87.21923828	2.92156863
87.22338104	2.90196085
87.22734833	2.92156863
87.23165131	2.80392146
87.23165131	2.58823538
87.23560333	2.54901958
87.23976898	2.52941179
87.24375916	2.52941179
87.24789429	2.39215684
87.25202179	2.27450991
87.25202179	2.25490189
87.25616455	2.29411769
87.26020813	2.39215684
87.26425934	2.35294127
87.26425934	2.47058821
87.26837158	2.25490189
87.27250671	2.31372547
87.27663422	2.39215684
87.27663422	2.45098042
87.28062439	2.47058821
87.28473663	2.54901958
87.28886414	2.56862736
87.29302979	2.64705873
87.29714966	2.64705873
87.29714966	2.62745094
87.30114746	2.64705873
87.30525208	2.58823538
87.30939484	2.52941179
87.30939484	2.50980401
87.31352234	2.50980401
87.31761932	2.52941179
87.32160187	2.68627453
87.32160187	2.76470590
87.32574463	2.82352948
87.32987976	3.11764717
87.33387756	3.64705873
87.33802032	3.98039222
87.34214783	4.35294104
87.34214783	4.50980377
87.34625244	4.72549009
87.35037231	4.74509811
87.35435486	4.35294104
87.35435486	3.96078420
87.35852051	3.50980401
87.36254120	3.13725495
87.36669922	2.66666675
87.36669922	2.19607854
87.37073517	1.78431368
87.37483215	1.60784316
87.37898254	1.84313726
87.38313293	1.88235295
87.38725281	2.00000000
87.38725281	2.15686274
87.39122009	2.29411769
87.39537811	2.37254906
87.39949799	2.21568632
87.39949799	2.29411769
87.40367126	2.37254906
87.40759277	2.39215684
87.41173553	2.31372547
87.41173553	2.25490189
87.41587067	2.35294127
87.41992950	2.37254906
87.41992950	2.45098042
87.42393494	2.62745094
87.42806244	2.60784316
87.43221283	2.49019599
87.43221283	2.43137264
87.43634033	2.37254906
87.44032288	2.54901958
87.44462585	2.64705873
87.44462585	2.86274505
87.44860077	2.86274505
87.45274353	2.80392146
87.45687103	2.84313726
87.45687103	2.74509811
87.46085358	2.74509811
87.46501923	2.78431368
87.46501923	2.94117641
87.46910858	2.94117641
87.47325134	2.80392146
87.47737122	2.72549009
87.47737122	2.80392146
87.48134613	2.94117641
87.48551178	2.96078420
87.48963165	2.94117641
87.48963165	2.94117641
87.49361420	2.90196085
87.49774933	2.80392146
87.50190735	2.94117641
87.50190735	3.00000000
87.50601196	3.13725495
87.51012421	3.21568632
87.51012421	3.27450991
87.51410675	3.25490189
87.51824188	3.29411769
87.52234650	3.39215684
87.52234650	3.41176462
87.52651215	3.41176462
87.53061676	3.39215684
87.53460693	3.47058821
87.53460693	3.49019599
87.53872681	3.62745094
87.54280853	3.70588231
87.54693604	3.70588231
87.54693604	3.74509811
87.55092621	3.92156863
87.55507660	3.82352948
87.55507660	3.78431368
87.55921936	3.82352948
87.56330872	3.84313726
87.56745148	3.86274505
87.56745148	3.82352948
87.57162476	3.72549009
87.57561493	3.60784316
87.57975006	3.60784316
87.57975006	3.58823538
87.58373260	3.68627453
87.58783722	3.58823538
87.59200287	3.21568632
87.59612274	3.01960778
87.60024261	2.98039222
87.60024261	3.00000000
87.60417938	2.88235283
87.60830688	2.74509811
87.61243439	2.54901958
87.61243439	2.45098042
87.61657715	2.50980401
87.62058258	2.49019599
87.62467957	2.41176462
87.62467957	2.33333325
87.62882233	2.13725495
87.63301086	2.05882359
87.63711548	2.03921580
87.64109802	2.15686274
87.64521027	2.21568632
87.64521027	2.13725495
87.64936829	1.96078432
87.65353394	1.94117641
87.65761566	2.00000000
87.65761566	2.09803915
87.66160583	2.09803915
87.66567230	2.15686274
87.66983032	2.07843137
87.66983032	2.00000000
87.67382813	1.98039210
87.67798615	2.01960778
87.68217468	2.23529410
87.68620300	2.25490189
87.69034576	2.09803915
87.69034576	2.17647052
87.69435120	2.15686274
87.69861603	2.11764717
87.70259094	2.17647052
87.70259094	2.37254906
87.70674133	2.47058821
87.71071625	2.29411769
87.71492004	2.31372547
87.71492004	2.27450991
87.71897125	2.33333325
87.72311401	2.29411769
87.72723389	2.39215684
87.73120880	2.45098042
87.73533630	2.45098042
87.73533630	2.49019599
87.73946381	2.41176462
87.74364471	2.49019599
87.74761200	2.50980401
87.74761200	2.33333325
87.75172424	2.35294127
87.75583649	2.50980401
87.75999451	2.56862736
87.75999451	2.60784316
87.76397705	2.62745094
87.76808167	2.68627453
87.77221680	2.52941179
87.77636719	2.50980401
87.78049469	2.68627453
87.78049469	2.72549009
87.78462219	2.62745094
87.78858948	2.70588231
87.79270935	2.68627453
87.79270935	2.60784316
87.79683685	2.58823538
87.80083466	2.76470590
87.80498505	2.88235283
87.80498505	2.84313726
87.80912018	2.78431368
87.81320953	2.60784316
87.81723022	2.70588231
87.82134247	2.78431368
87.82550049	2.74509811
87.82550049	2.66666675
87.82962799	2.74509811
87.83361053	2.70588231
87.83772278	2.64705873
87.83772278	2.84313726
87.84187317	2.88235283
87.84600067	2.72549009
87.85011292	2.72549009
87.85011292	2.70588231
87.85408020	2.68627453
87.85820770	2.68627453
87.86233521	2.68627453
87.86647797	2.86274505
87.87059784	3.05882359
87.87059784	3.00000000
87.87454987	2.88235283
87.87870789	2.72549009
87.88275909	2.82352948
87.88275909	2.90196085
87.88687897	2.86274505
87.89096832	2.66666675
87.89508820	2.66666675
87.89508820	2.76470590
87.89921570	2.74509811
87.90338135	2.90196085
87.90734100	2.76470590
87.91161346	2.72549009
87.91558838	2.64705873
87.91558838	2.64705873
87.91970825	2.64705873
87.92371368	2.72549009
87.92784119	2.76470590
87.92784119	2.72549009
87.93197632	2.86274505
87.93610382	3.00000000
87.94022369	2.80392146
87.94022369	2.80392146
87.94421387	2.72549009
87.94833374	2.70588231
87.94833374	2.70588231
87.95247650	2.60784316
87.95661163	2.56862736
87.96073914	2.66666675
87.96073914	2.66666675
87.96474457	2.70588231
87.96883392	2.70588231
87.97295380	2.72549009
87.97295380	2.80392146
87.97711945	2.82352948
87.98107910	2.80392146
87.98520660	2.84313726
87.98520660	2.82352948
87.98932648	2.90196085
87.99350739	2.98039222
87.99350739	2.82352948
87.99760437	2.82352948
88.00160217	2.92156863
88.00570679	2.76470590
88.00570679	2.74509811
88.00986481	2.84313726
88.01398468	2.88235283
88.01797485	2.80392146
88.01797485	2.78431368
88.02208710	2.86274505
88.02624512	3.03921580
88.03036499	3.01960778
88.03036499	2.96078420
88.03433228	2.88235283
88.03861237	2.78431368
88.03861237	2.94117641
88.04258728	2.96078420
88.04670715	2.86274505
88.05082703	2.76470590
88.05082703	2.78431368
88.05485535	3.03921580
88.05899811	3.33333325
88.06307983	3.25490189
88.06307983	3.13725495
88.06709290	3.19607854
88.07121277	3.05882359
88.07534027	2.96078420
88.07534027	2.98039222
88.07948303	3.07843137
88.08361053	2.98039222
88.08361053	3.05882359
88.08759308	3.09803915
88.09172821	2.88235283
88.09585571	2.76470590
88.09585571	2.66666675
88.09999084	2.68627453
88.10395050	2.60784316
88.10807800	2.80392146
88.10807800	2.82352948
88.11220551	2.62745094
88.11634827	2.60784316
88.12043762	2.68627453
88.12457275	2.74509811
88.12858582	2.80392146
88.12858582	2.72549009
88.13271332	2.60784316
88.13685608	2.52941179
88.14099121	2.64705873
88.14099121	2.76470590
88.14495850	2.88235283
88.14907837	2.90196085
88.15322876	2.82352948
88.15322876	2.76470590
88.15735626	2.86274505
88.16132355	3.01960778
88.16548920	2.90196085
88.16949463	2.90196085
88.17365265	3.21568632
88.17365265	3.43137264
88.17765808	3.72549009
88.18186951	4.11764717
88.18594360	4.43137264
88.18594360	4.70588255
88.19010925	4.90196085
88.19409180	4.98039198
88.19821930	4.96078444
88.19821930	4.84313726
88.20233917	4.43137264
88.20645142	3.88235283
88.21060181	2.58823538
88.21457672	2.01960778
88.21871948	1.82352936
88.21871948	1.90196073
88.22285461	2.13725495
88.22698212	2.05882359
88.23100281	2.21568632
88.23100281	2.31372547
88.23512268	2.37254906
88.23925018	2.52941179
88.24333191	2.60784316
88.24333191	2.72549009
88.24733734	2.74509811
88.25162506	2.70588231
88.25560760	2.84313726
88.25971222	2.82352948
88.26384735	2.84313726
88.26384735	2.84313726
88.26781464	2.78431368
88.27195740	2.76470590
88.27611542	2.74509811
88.27611542	2.76470590
88.28022003	3.05882359
88.28419495	3.07843137
88.28832245	2.98039222
88.28832245	2.98039222
88.29242706	2.94117641
88.29655457	2.98039222
88.30056763	2.98039222
88.30469513	3.07843137
88.30882263	3.05882359
88.30882263	2.92156863
88.31292725	2.96078420
88.31692505	3.03921580
88.32102966	3.15686274
88.32102966	3.19607854
88.32514954	3.07843137
88.32925415	3.11764717
88.33339691	3.09803915
88.33339691	3.15686274
88.33762360	3.19607854
88.34159088	3.31372547
88.34571838	3.39215684
88.34980011	3.31372547
88.35391235	3.17647052
88.35391235	3.23529410
88.35787201	3.47058821
88.36199951	3.56862736
88.36618805	3.54901958
88.36618805	3.56862736
88.37029266	3.49019599
88.37425232	3.41176462
88.37849426	3.37254906
88.37849426	3.70588231
88.38246918	4.00000000
88.38665771	4.05882359
88.39065552	3.90196085
88.39477539	3.84313726
88.39890289	3.88235283
88.39890289	3.88235283
88.40300751	3.90196085
88.40712738	4.01960802
88.41112518	4.01960802
88.41112518	4.00000000
88.41523743	3.96078420
88.41938019	3.90196085
88.42354584	3.98039222
88.42354584	3.86274505
88.42751312	3.88235283
88.43171692	3.80392146
88.43582916	3.72549009
88.43997955	3.68627453
88.44409943	3.62745094
88.44409943	3.41176462
88.44807434	3.31372547
88.45220947	3.07843137
88.45634460	2.98039222
88.45634460	2.74509811
88.46047974	2.58823538
88.46459961	2.66666675
88.46856689	2.62745094
88.46856689	2.39215684
88.47270203	2.21568632
88.47684479	2.09803915
88.47684479	2.09803915
88.48081970	2.15686274
88.48494720	2.17647052
88.48906708	2.13725495
88.48906708	2.11764717
88.49321747	2.09803915
88.49720001	2.11764717
88.50132751	2.13725495
88.50132751	2.21568632
88.50547791	2.05882359
88.50959778	2.03921580
88.51372528	2.19607854
88.51372528	2.09803915
88.51770782	2.03921580
88.52182770	2.23529410
88.52182770	2.43137264
88.52595520	2.52941179
88.53009796	2.45098042
88.53421783	2.19607854
88.53421783	2.19607854
88.53822327	2.35294127
88.54231262	2.41176462
88.54644012	2.31372547
88.54644012	2.25490189
88.55056763	2.27450991
88.55459595	2.31372547
88.55872345	2.41176462
88.55872345	2.58823538
88.56282806	2.52941179
88.56694031	2.56862736
88.56694031	2.54901958
88.57096100	2.47058821
88.57508850	2.62745094
88.57920074	2.68627453
88.57920074	2.70588231
88.58335114	2.72549009
88.58734894	2.54901958
88.59159851	2.62745094
88.59159851	2.47058821
88.59559631	2.52941179
88.59972382	2.64705873
88.60381317	2.56862736
88.60381317	2.56862736
88.60781860	2.58823538
88.61193848	2.52941179
88.61193848	2.58823538
88.61608887	2.60784316
88.62022400	2.66666675
88.62431335	2.80392146
88.62431335	2.74509811
88.62833405	2.76470590
88.63245392	2.66666675
88.63658905	2.60784316
88.63658905	2.80392146
88.64059448	2.88235283
88.64469910	2.90196085
88.64879608	2.98039222
88.65293884	2.96078420
88.65710449	2.88235283
88.65710449	2.84313726
88.66107941	2.74509811
88.66524506	2.66666675
88.66931152	2.50980401
88.66931152	2.52941179
88.67349243	2.58823538
88.67758942	2.66666675
88.68163300	2.90196085
88.68163300	2.96078420
88.68574524	2.88235283
88.68988800	2.82352948
88.69396973	2.90196085
88.69793701	2.88235283
88.70207214	2.90196085
88.70207214	2.80392146
88.70623016	2.78431368
88.71034241	2.78431368
88.71435547	2.82352948
88.71435547	2.80392146
88.71859741	2.92156863
88.72256470	3.13725495
88.72668457	3.01960778
88.72668457	2.80392146
88.73069000	2.68627453
88.73480988	2.74509811
88.73893738	2.86274505
88.74306488	2.98039222
88.74717712	2.92156863
88.74717712	2.76470590
88.75115967	2.62745094
88.75527954	2.64705873
88.75947571	2.92156863
88.75947571	3.11764717
88.76358032	3.11764717
88.76756287	3.07843137
88.77168274	2.98039222
88.77168274	2.94117641
88.77587128	2.78431368
88.77996063	2.82352948
88.78408813	3.00000000
88.78805542	2.94117641
88.79219055	2.68627453
88.79219055	2.60784316
88.79631805	2.86274505
88.80043793	2.94117641
88.80460358	2.92156863
88.80460358	3.03921580
88.80858612	2.86274505
88.81269836	2.80392146
88.81681061	2.90196085
88.81681061	2.80392146
88.82081604	2.78431368
88.82494354	2.84313726
88.82907867	2.86274505
88.83322144	2.86274505
88.83733368	2.78431368
88.83733368	2.86274505
88.84131622	2.82352948
88.84546661	2.94117641
88.84959412	2.98039222
88.84959412	2.80392146
88.85368347	2.78431368
88.85768127	2.82352948
88.86180878	2.94117641
88.86180878	2.98039222
88.86595917	2.98039222
88.87009430	2.96078420
88.87418365	2.78431368
88.87820435	2.78431368
88.88233948	2.96078420
88.88233948	3.03921580
88.88637543	3.07843137
88.89047241	3.15686274
88.89452362	3.15686274
88.89452362	3.03921580
88.89869690	3.09803915
88.90280914	3.19607854
88.90696716	3.11764717
88.90696716	3.07843137
88.91094971	3.03921580
88.91497803	2.84313726
88.91909790	2.96078420
88.92326355	2.98039222
88.92736816	3.07843137
88.92736816	2.98039222
88.93159485	2.78431368
88.93557739	2.66666675
88.93972015	2.68627453
88.93972015	2.60784316
88.94384003	2.62745094
88.94781494	2.49019599
88.95196533	2.35294127
88.95196533	2.41176462
88.95609283	2.50980401
88.96021271	2.54901958
88.96021271	2.64705873
88.96420288	2.58823538
88.96829987	2.74509811
88.97244263	2.84313726
88.97244263	2.84313726
88.97655487	2.78431368
88.98055267	2.72549009
88.98468018	2.86274505
88.98468018	2.86274505
88.98880768	2.70588231
88.99295807	2.62745094
88.99707794	2.54901958
88.99707794	2.50980401
89.00107574	2.74509811
89.00519562	2.80392146
89.00519562	2.80392146
89.00933075	2.74509811
89.01345825	2.78431368
89.01757813	3.03921580
89.01757813	3.43137264
89.02157593	3.78431368
89.02574921	4.07843161
89.02984619	4.37254906
89.02984619	4.56862736
89.03395844	4.72549009
89.03794098	4.98039198
89.04202271	4.92156839
89.04202271	4.58823538
89.04615021	4.17647076
89.05027008	3.49019599
89.05027008	2.88235283
89.05431366	2.45098042
89.05854034	2.25490189
89.06253815	2.09803915
89.06253815	2.05882359
89.06671906	2.05882359
89.07070923	2.11764717
89.07482147	2.09803915
89.07482147	2.11764717
89.07894897	2.31372547
89.08308411	2.35294127
89.08722687	2.39215684
89.08722687	2.39215684
89.09118652	2.47058821
89.09530640	2.70588231
89.09530640	2.64705873
89.09944916	2.66666675
89.10354614	2.54901958
89.10767365	2.49019599
89.10767365	2.64705873
89.11166382	2.84313726
89.11582184	2.80392146
89.11995697	2.76470590
89.11995697	2.92156863
89.12393951	2.86274505
89.12805939	2.86274505
89.13219452	2.82352948
89.13219452	2.82352948
89.13632965	2.74509811
89.14045715	2.90196085
89.14045715	2.96078420
89.14458466	2.94117641
89.14859009	2.94117641
89.15269470	2.82352948
89.15269470	2.72549009
89.15682983	2.68627453
89.16082764	2.86274505
89.16497040	2.96078420
89.16497040	3.00000000
89.16909027	2.86274505
89.17321777	2.78431368
89.17732239	2.96078420
89.18132019	3.03921580
89.18560791	3.13725495
89.18560791	3.17647052
89.18959808	3.11764717
89.19370270	3.19607854
89.19782257	3.41176462
89.19782257	3.50980401
89.20182037	3.54901958
89.20593262	3.64705873
89.21004486	3.66666675
89.21004486	3.64705873
89.21408844	3.47058821
89.21817017	3.47058821
89.22231293	3.74509811
89.22638702	3.68627453
89.23050690	3.66666675
89.23050690	3.60784316
89.23451233	3.64705873
89.23864746	3.72549009
89.24279022	3.62745094
89.24279022	3.60784316
89.24688721	3.66666675
89.25090027	3.70588231
89.25505066	3.82352948
89.25505066	3.86274505
89.25917816	4.01960802
89.26332855	4.09803915
89.26745605	3.92156863
89.27157593	3.70588231
89.27558899	3.54901958
89.27558899	3.54901958
89.27969360	3.45098042
89.28382111	3.39215684
89.28781128	3.25490189
89.28781128	3.37254906
89.29192352	3.35294127
89.29605103	3.17647052
89.30017090	2.92156863
89.30017090	2.72549009
89.30421448	2.52941179
89.30832672	2.43137264
89.31244659	2.01960778
89.31655884	1.86274505
89.32070160	2.25490189
89.32070160	2.31372547
89.32469177	2.41176462
89.32881927	2.33333325
89.33293152	2.13725495
89.33293152	2.05882359
89.33712006	1.96078432
89.34106445	2.11764717
89.34518433	2.25490189
89.34518433	2.13725495
89.34932709	2.13725495
89.35342407	2.21568632
89.35755157	2.21568632
89.36154938	2.21568632
89.36569214	2.21568632
89.36569214	2.27450991
89.36982727	2.17647052
89.37392426	2.05882359
89.37792206	2.11764717
89.37792206	2.25490189
89.38199615	2.31372547
89.38606262	2.31372547
89.39017487	2.27450991
89.39017487	2.15686274
89.39421844	2.13725495
89.39858246	2.19607854
89.40254211	2.43137264
89.40670013	2.50980401
89.41082764	2.43137264
89.41082764	2.27450991
89.41479492	2.35294127
89.41892242	2.39215684
89.42304230	2.35294127
89.42304230	2.49019599
89.42720032	2.56862736
89.43121338	2.52941179
89.43529510	2.39215684
89.43529510	2.31372547
89.43943787	2.39215684
89.44357300	2.58823538
89.44756317	2.47058821
89.45169067	2.45098042
89.45580292	2.39215684
89.45580292	2.33333325
89.45988464	2.35294127
89.46407318	2.49019599
89.46806335	2.70588231
89.46806335	2.62745094
89.47217560	2.50980401
89.47626495	2.49019599
89.48038483	2.62745094
89.48038483	2.66666675
89.48451996	2.64705873
89.48852539	2.58823538
89.48852539	2.43137264
89.49265289	2.45098042
89.49678802	2.58823538
89.50090790	2.68627453
89.50090790	2.54901958
89.50489044	2.37254906
89.50906372	2.50980401
89.51318359	2.47058821
89.51318359	2.47058821
89.51732635	2.41176462
89.52130127	2.49019599
89.52558899	2.49019599
89.52558899	2.52941179
89.52957153	2.58823538
89.53369904	2.58823538
89.53369904	2.54901958
89.53764343	2.50980401
89.54178619	2.54901958
89.54591370	2.54901958
89.54591370	2.58823538
89.55004883	2.50980401
89.55423737	2.47058821
89.55818939	2.45098042
89.55818939	2.54901958
89.56230927	2.56862736
89.56642151	2.49019599
89.57056427	2.54901958
89.57056427	2.47058821
89.57456207	2.58823538
89.57867432	2.66666675
89.57867432	2.68627453
89.58278656	2.68627453
89.58694458	2.47058821
89.59107208	2.43137264
89.59107208	2.39215684
89.59505463	2.31372547
89.59918213	2.29411769
89.60329437	2.45098042
89.60329437	2.66666675
89.60746002	2.68627453
89.61159515	2.52941179
89.61557770	2.49019599
89.61557770	2.49019599
89.61970520	2.64705873
89.62385559	2.64705873
89.62385559	2.56862736
89.62784576	2.45098042
89.63193512	2.47058821
89.63605499	2.47058821
89.63605499	2.58823538
89.64022064	2.62745094
89.64418793	2.64705873
89.64831543	2.64705873
89.64831543	2.62745094
89.65242767	2.52941179
89.65656281	2.52941179
89.66069794	2.76470590
89.66069794	2.84313726
89.66465759	2.84313726
89.66878510	2.74509811
89.66878510	2.62745094
89.67292023	2.54901958
89.67706299	2.54901958
89.68114471	2.62745094
89.68114471	2.72549009
89.68521118	2.82352948
89.68931580	2.78431368
89.69344330	2.62745094
89.69344330	2.66666675
89.69756317	2.66666675
89.70153809	2.62745094
89.70567322	2.43137264
89.70982361	2.45098042
89.71395111	2.29411769
89.71395111	2.23529410
89.71792603	2.37254906
89.72206116	2.41176462
89.72607422	2.43137264
89.72607422	2.58823538
89.73020172	2.54901958
89.73426056	2.50980401
89.73847961	2.50980401
89.73847961	2.56862736
89.74258423	2.50980401
89.74668884	2.64705873
89.75081635	2.64705873
89.75479889	2.49019599
89.75891113	2.43137264
89.75891113	2.50980401
89.76305389	2.56862736
89.76719666	2.62745094
89.77131653	2.52941179
89.77131653	2.56862736
89.77529144	2.33333325
89.77943420	2.31372547
89.78356171	2.52941179
89.78356171	2.76470590
89.78751373	3.11764717
89.79162598	3.37254906
89.79575348	4.03921556
89.79987335	4.47058821
89.80403900	4.68627453
89.80403900	4.98039198
89.80802917	4.94117641
89.81214142	4.76470566
89.81625366	4.35294104
89.81625366	3.74509811
89.82044983	3.15686274
89.82456207	2.52941179
89.82855225	2.15686274
89.82855225	1.80392158
89.83267212	1.64705884
89.83684540	1.68627453
89.84093475	2.03921580
89.84490967	2.13725495
89.84906006	2.25490189
89.84906006	2.15686274
89.85313416	2.03921580
89.85725403	2.27450991
89.86125183	2.35294127
89.86125183	2.31372547
89.86554718	2.50980401
89.86952209	2.41176462
89.87363434	2.43137264
89.87363434	2.41176462
89.87763214	2.47058821
89.88179016	2.58823538
89.88592529	2.78431368
89.89006042	2.60784316
89.89418030	2.52941179
89.89418030	2.52941179
89.89817047	2.56862736
89.90224457	2.56862736
89.90646362	2.66666675
89.90646362	2.56862736
89.91058350	2.47058821
89.91458893	2.50980401
89.91862488	2.58823538
89.91862488	2.64705873
89.92278290	2.70588231
89.92692566	2.70588231
89.93090820	2.49019599
89.93501282	2.50980401
89.93916321	2.90196085
89.93916321	3.11764717
89.94324493	3.11764717
89.94741821	3.01960778
89.95153809	2.78431368
89.95153809	2.66666675
89.95554352	2.76470590
89.95967102	2.82352948
89.96375275	2.94117641
89.96375275	3.19607854
89.96773529	3.25490189
89.97187042	3.13725495
89.97603607	2.92156863
89.98015594	3.07843137
89.98425293	3.09803915
89.98425293	3.11764717
89.98821259	3.13725495
89.99242401	3.35294127
89.99646759	3.54901958
89.99646759	3.54901958
90.00056458	3.52941179
90.00460052	3.45098042
90.00872803	3.50980401
90.00872803	3.52941179
90.01285553	3.54901958
90.01698303	3.66666675
90.01698303	3.72549009
90.02098083	3.74509811
90.02510834	3.82352948
90.02922058	3.70588231
90.02922058	3.56862736
90.03334808	3.39215684
90.03746796	3.37254906
90.04154968	3.45098042
90.04154968	3.52941179
90.04567719	3.60784316
90.04978943	3.41176462
90.05393219	3.31372547
90.05393219	3.13725495
90.05790710	3.15686274
90.06203461	3.03921580
90.06203461	2.86274505
90.06618500	2.68627453
90.07030487	2.50980401
90.07443237	2.21568632
90.07443237	2.05882359
90.07855225	2.15686274
90.08253479	2.11764717
90.08666229	2.11764717
90.08666229	1.84313726
90.09080505	1.78431368
90.09477234	1.84313726
90.09892273	1.96078432
90.09892273	1.96078432
90.10302734	1.98039210
90.10715485	1.94117641
90.10715485	1.90196073
90.11115265	1.54901958
90.11529541	1.56862748
90.11955261	1.80392158
90.11955261	1.78431368
90.12355042	1.90196073
90.12766266	2.01960778
90.13166046	1.94117641
90.13166046	1.92156863
90.13580322	1.94117641
90.13993835	2.09803915
90.14405823	2.09803915
90.14405823	2.00000000
90.14805603	2.00000000
90.15217590	2.01960778
90.15217590	1.98039210
90.15630341	1.92156863
90.16044617	1.78431368
90.16452789	2.01960778
90.16452789	2.17647052
90.16852570	2.09803915
90.17265320	2.01960778
90.17679596	1.92156863
90.17679596	1.90196073
90.18080902	2.05882359
90.18490601	2.25490189
90.18902588	2.19607854
90.18902588	2.05882359
90.19310760	2.03921580
90.19731140	2.11764717
90.19731140	2.23529410
90.20127869	2.27450991
90.20543671	2.31372547
90.20954895	2.33333325
90.20954895	2.29411769
90.21367645	2.19607854
90.21765900	2.07843137
90.22179413	2.15686274
90.22179413	2.31372547
90.22589874	2.41176462
90.23001862	2.45098042
90.23415375	2.15686274
90.23817444	2.17647052
90.24230957	2.21568632
90.24230957	2.17647052
90.24639893	2.11764717
90.25054169	2.03921580
90.25467682	2.03921580
90.25467682	2.15686274
90.25865936	2.52941179
90.26278687	2.74509811
90.26693726	2.62745094
90.26693726	2.50980401
90.27097321	2.37254906
90.27503967	2.37254906
90.27918243	2.37254906
90.28330231	2.47058821
90.28739929	2.52941179
90.28739929	2.50980401
90.29151917	2.41176462
90.29552460	2.33333325
90.29965973	2.35294127
90.29965973	2.45098042
90.30377960	2.45098042
90.30777740	2.41176462
90.31191254	2.43137264
90.31191254	2.43137264
90.31605530	2.41176462
90.32018280	2.45098042
90.32431030	2.41176462
90.32827759	2.29411769
90.33255005	2.19607854
90.33255005	2.37254906
90.33657837	2.50980401
90.34066772	2.64705873
90.34481049	2.80392146
90.34481049	2.78431368
90.34877777	2.66666675
90.35289764	2.49019599
90.35702515	2.45098042
90.35702515	2.43137264
90.36102295	2.58823538
90.36517334	2.52941179
90.36929321	2.45098042
90.37341309	2.45098042
90.37752533	2.37254906
90.37752533	2.33333325
90.38153076	2.45098042
90.38568115	2.68627453
90.38978577	2.74509811
90.38978577	2.50980401
90.39392853	2.43137264
90.39791870	2.52941179
90.40191650	2.66666675
90.40191650	2.64705873
90.40606689	2.62745094
90.41030121	2.58823538
90.41424561	2.41176462
90.41849518	2.50980401
90.42248535	2.60784316
90.42248535	2.76470590
90.42663574	2.88235283
90.43077850	2.66666675
90.43473816	2.70588231
90.43473816	2.68627453
90.43888855	2.86274505
90.44304657	2.98039222
90.44717407	2.92156863
90.44717407	2.80392146
90.45112610	2.64705873
90.45524597	2.60784316
90.45941925	2.58823538
90.46351624	2.70588231
90.46764374	2.88235283
90.46764374	2.78431368
90.47161102	2.72549009
90.47579956	2.66666675
90.47984314	2.58823538
90.47984314	2.70588231
90.48396301	2.70588231
90.48799133	2.74509811
90.49215698	2.56862736
90.49215698	2.54901958
90.49622345	2.49019599
90.50040436	2.58823538
90.50453949	2.56862736
90.50850677	2.60784316
90.51265717	2.60784316
90.51265717	2.58823538
90.51679230	2.64705873
90.52077484	2.72549009
90.52491760	2.45098042
90.52491760	2.41176462
90.52902222	2.41176462
90.53313446	2.33333325
90.53721619	2.37254906
90.53721619	2.45098042
90.54122162	2.56862736
90.54546356	2.60784316
90.54546356	2.56862736
90.54948425	2.56862736
90.55361938	2.52941179
90.55774689	2.47058821
90.55774689	2.52941179
90.56175995	2.62745094
90.56589508	2.90196085
90.57001495	3.13725495
90.57001495	3.35294127
90.57415771	3.66666675
90.57813263	4.05882359
90.58225250	4.60784292
90.58225250	4.84313726
90.58643341	4.90196085
90.59053802	4.86274529
90.59053802	4.52941179
90.59452057	3.88235283
90.59858704	3.33333325
90.60274506	2.78431368
90.60274506	2.23529410
90.60686493	1.94117641
90.61100769	1.76470590
90.61502075	1.68627453
90.61502075	1.54901958
90.61913300	1.80392158
90.62327576	1.90196073
90.62740326	2.03921580
90.62740326	1.98039210
90.63152313	1.96078432
90.63549042	1.98039210
90.63549042	2.19607854
90.63964844	2.35294127
90.64377594	2.45098042
90.64792633	2.39215684
90.64792633	2.39215684
90.65187073	2.33333325
90.65600586	2.29411769
90.66015625	2.35294127
90.66015625	2.27450991
90.66410828	2.41176462
90.66822815	2.54901958
90.67249298	2.50980401
90.67249298	2.33333325
90.67655945	2.35294127
90.68064117	2.37254906
90.68064117	2.31372547
90.68464661	2.50980401
90.68874359	2.60784316
90.69289398	2.66666675
90.69289398	2.64705873
90.69702148	2.50980401
90.70101166	2.47058821
90.70513153	2.56862736
90.70513153	2.66666675
90.70930481	2.66666675
90.71341705	2.50980401
90.71753693	2.52941179
90.71753693	2.76470590
90.72151184	2.80392146
90.72561646	2.92156863
90.72561646	3.01960778
90.72973633	2.92156863
90.73385620	2.72549009
90.73799896	2.66666675
90.73799896	2.80392146
90.74201202	2.72549009
90.74610901	2.80392146
90.75025177	2.78431368
90.75025177	2.78431368
90.75428009	2.96078420
90.75853729	3.07843137
90.76253510	3.31372547
90.76667023	3.27450991
90.77080536	3.13725495
90.77080536	3.00000000
90.77478027	2.98039222
90.77890778	3.29411769
90.78301239	3.56862736
90.78301239	3.58823538
90.78713226	3.39215684
90.79113007	3.33333325
90.79526520	3.45098042
90.79526520	3.50980401
90.79940796	3.56862736
90.80353546	3.58823538
90.80762482	3.62745094
90.81163788	3.52941179
90.81576538	3.43137264
90.81576538	3.39215684
90.81990814	3.45098042
90.82403564	3.56862736
90.82816315	3.43137264
90.82816315	3.35294127
90.83216095	3.11764717
90.83630371	2.90196085
90.84041595	2.76470590
90.84041595	2.62745094
90.84453583	2.60784316
90.84851074	2.41176462
90.85263062	2.13725495
90.85675812	2.19607854
90.86089325	2.05882359
90.86089325	1.76470590
90.86489868	1.68627453
90.86902618	1.90196073
90.87315369	1.74509799
90.87315369	1.78431368
90.87728882	1.74509799
90.88127136	1.80392158
90.88553619	1.88235295
90.88553619	1.80392158
90.88953400	1.66666663
90.89366913	1.58823526
90.89781189	1.76470590
90.90174866	1.90196073
90.90589142	1.96078432
90.90589142	1.84313726
90.91004181	1.62745094
90.91418457	1.58823526
90.91825867	1.62745094
90.91825867	1.70588231
90.92219543	1.72549021
90.92649078	1.82352936
90.93049622	1.92156863
90.93049622	1.88235295
90.93447876	1.88235295
90.93863678	1.82352936
90.94276428	1.98039210
90.94692230	1.96078432
90.95104218	1.72549021
90.95104218	1.62745094
90.95502472	1.76470590
90.95915985	1.98039210
90.96328735	2.03921580
90.96328735	2.21568632
90.96740723	2.21568632
90.97153473	2.00000000
90.97550201	1.84313726
90.97550201	1.78431368
90.97962952	2.03921580
90.98374939	2.07843137
90.98790741	1.94117641
90.99192047	1.84313726
90.99600983	1.82352936
90.99600983	1.98039210
91.00014496	2.13725495
91.00411987	2.21568632
91.00827789	2.25490189
91.00827789	2.25490189
91.01253510	2.05882359
91.01650238	1.96078432
91.02066803	1.98039210
91.02066803	2.21568632
91.02465057	2.31372547
91.02877045	2.33333325
91.03289795	2.29411769
91.03700256	2.35294127
91.04113007	2.27450991
91.04113007	2.41176462
91.04512787	2.39215684
91.04927826	2.39215684
91.05341339	2.33333325
91.05341339	2.19607854
91.05750275	2.23529410
91.06151581	2.21568632
91.06562805	2.39215684
91.06562805	2.41176462
91.06974792	2.31372547
91.07391357	2.33333325
91.07391357	2.35294127
91.07791138	2.35294127
91.08204651	2.37254906
91.08615112	2.39215684
91.08615112	2.37254906
91.09027863	2.37254906
91.09427643	2.25490189
91.09850311	2.29411769
91.09850311	2.41176462
91.10250092	2.43137264
91.10662842	2.43137264
91.11076355	2.37254906
91.11076355	2.43137264
91.11476898	2.27450991
91.11889648	2.31372547
91.11889648	2.60784316
91.12301636	2.58823538
91.12715149	2.60784316
91.13127136	2.56862736
91.13127136	2.52941179
91.13524628	2.50980401
91.13941956	2.54901958
91.14353180	2.50980401
91.14353180	2.58823538
91.14753723	2.58823538
91.15164185	2.43137264
91.15577698	2.37254906
91.15577698	2.35294127
91.15992737	2.45098042
91.16400146	2.56862736
91.16400146	2.66666675
91.16800690	2.56862736
91.17212677	2.52941179
91.17628479	2.50980401
91.17628479	2.56862736
91.18039703	2.72549009
91.18452454	2.74509811
91.18850708	2.72549009
91.18850708	2.47058821
91.19264221	2.62745094
91.19679260	2.72549009
91.20090485	2.62745094
91.20090485	2.70588231
91.20488739	2.90196085
91.20906067	2.76470590
91.20906067	2.86274505
91.21313477	2.90196085
91.21727753	2.84313726
91.22141266	2.76470590
91.22141266	2.88235283
91.22549438	3.01960778
91.22949982	2.86274505
91.23362732	2.78431368
91.23362732	2.68627453
91.23777771	2.62745094
91.24172974	2.76470590
91.24584198	2.78431368
91.24584198	2.68627453
91.25003052	2.43137264
91.25415802	2.39215684
91.25415802	2.39215684
91.25813293	2.52941179
91.26228333	2.62745094
91.26638031	2.64705873
91.26638031	2.58823538
91.27053833	2.47058821
91.27451324	2.45098042
91.27864838	2.41176462
91.27864838	2.37254906
91.28275299	2.17647052
91.28678894	2.45098042
91.29091644	2.50980401
91.29496002	2.45098042
91.29909515	2.56862736
91.29909515	2.60784316
91.30326080	2.52941179
91.30738831	2.62745094
91.31153107	2.56862736
91.31153107	2.41176462
91.31551361	2.35294127
91.31964874	2.39215684
91.32377625	2.39215684
91.32377625	2.47058821
91.32776642	2.49019599
91.33187103	2.50980401
91.33601379	2.72549009
91.34015656	3.07843137
91.34427643	3.45098042
91.34427643	3.78431368
91.34824371	4.01960802
91.35250092	4.27450991
91.35650635	4.49019623
91.35650635	4.68627453
91.36064148	4.90196085
91.36463165	4.68627453
91.36874390	4.29411745
91.36874390	3.84313726
91.37287140	3.23529410
91.37701416	2.66666675
91.38112640	1.90196073
91.38510132	1.82352936
91.38922882	1.72549021
91.38922882	1.64705884
91.39337921	1.74509799
91.39754486	1.90196073
91.40149689	2.17647052
91.40149689	2.39215684
91.40562439	2.33333325
91.40975952	2.25490189
91.41387939	2.21568632
91.41387939	2.07843137
91.41780853	2.13725495
91.42198181	2.27450991
91.42612457	2.31372547
91.43028259	2.23529410
91.43438721	2.33333325
91.43438721	2.31372547
91.43850708	2.47058821
91.44248962	2.43137264
91.44661713	2.47058821
91.44661713	2.45098042
91.45075226	2.39215684
91.45473480	2.43137264
91.45888519	2.49019599
91.45888519	2.70588231
91.46299744	2.72549009
91.46715546	2.78431368
91.47126770	2.52941179
91.47521973	2.52941179
91.47946930	2.72549009
91.47946930	2.74509811
91.48346710	2.78431368
91.48762512	2.70588231
91.49161530	2.72549009
91.49161530	2.76470590
91.49571228	2.68627453
91.49985504	2.68627453
91.50402832	2.74509811
91.50402832	2.78431368
91.50800323	2.68627453
91.51212311	2.60784316
91.51625061	2.66666675
91.52041626	2.82352948
91.52451324	2.80392146
91.52451324	2.94117641
91.52849579	2.88235283
91.53263092	2.80392146
91.53679657	2.88235283
91.53679657	2.94117641
91.54092407	3.03921580
91.54486084	3.23529410
91.54901886	3.33333325
91.54901886	3.27450991
91.55317688	3.25490189
91.55725861	3.21568632
91.56124115	3.47058821
91.56552887	3.52941179
91.56951904	3.37254906
91.56951904	3.54901958
91.57363892	3.88235283
91.57762909	3.96078420
91.58177948	3.98039222
91.58177948	3.90196085
91.58587646	3.72549009
91.59002686	3.62745094
91.59413910	3.54901958
91.59413910	3.41176462
91.59809875	3.49019599
91.60223389	3.33333325
91.60223389	3.31372547
91.60635376	3.11764717
91.61049652	2.94117641
91.61463165	2.88235283
91.61463165	2.58823538
91.61861420	2.54901958
91.62274170	2.58823538
91.62686157	2.43137264
91.62686157	2.29411769
91.63100433	2.11764717
91.63499451	2.07843137
91.63909149	1.98039210
91.63909149	2.07843137
91.64324951	2.09803915
91.64739990	2.05882359
91.64739990	1.94117641
91.65149689	1.82352936
91.65548706	1.82352936
91.65958405	1.96078432
91.65958405	2.01960778
91.66370392	1.96078432
91.66770935	1.88235295
91.67183685	1.70588231
91.67183685	1.76470590
91.67598724	1.88235295
91.68010712	1.94117641
91.68422699	2.09803915
91.68422699	2.09803915
91.68820953	2.11764717
91.69251251	2.09803915
91.69251251	1.94117641
91.69650269	1.86274505
91.70064545	1.90196073
91.70477295	1.92156863
91.70477295	2.09803915
91.70875549	2.07843137
91.71288300	1.96078432
91.71700287	1.90196073
91.71700287	2.09803915
91.72113800	2.05882359
91.72511292	2.05882359
91.72924042	2.13725495
91.72924042	2.13725495
91.73340607	2.05882359
91.73753357	2.09803915
91.73753357	2.21568632
91.74150848	2.21568632
91.74568176	2.17647052
91.74979401	2.03921580
91.74979401	2.05882359
91.75382233	2.03921580
91.75790405	2.07843137
91.76199341	2.17647052
91.76199341	2.15686274
91.76612854	2.11764717
91.77026367	1.96078432
91.77439117	2.31372547
91.77852631	2.43137264
91.78250122	2.49019599
91.78250122	2.39215684
91.78661346	2.27450991
91.79078674	2.35294127
91.79490662	2.33333325
91.79490662	2.21568632
91.79889679	2.05882359
91.80302429	2.07843137
91.80715942	2.35294127
91.80715942	2.41176462
91.81112671	2.29411769
91.81523895	2.35294127
91.81951904	2.25490189
91.82350922	2.29411769
91.82764435	2.23529410
91.82764435	2.15686274
91.83160400	2.25490189
91.83576202	2.19607854
91.83987427	2.03921580
91.83987427	2.17647052
91.84401703	2.29411769
91.84798431	2.35294127
91.85211182	2.39215684
91.85211182	2.13725495
91.85623169	2.07843137
91.86038208	2.31372547
91.86451721	2.27450991
91.86847687	2.13725495
91.87263489	2.13725495
91.87263489	2.17647052
91.87674713	2.13725495
91.88088226	2.21568632
91.88501740	2.27450991
91.88501740	2.31372547
91.88899231	2.13725495
91.89311218	2.03921580
91.89726257	1.98039210
91.89726257	2.25490189
91.90128326	2.29411769
91.90551758	2.35294127
91.90945435	2.29411769
91.91357422	2.19607854
91.91770172	2.37254906
91.91770172	2.41176462
91.92169952	2.39215684
91.92585754	2.35294127
91.92998505	2.29411769
91.92998505	2.35294127
91.93410492	2.27450991
91.93807983	2.37254906
91.94219971	2.41176462
91.94219971	2.37254906
91.94635773	2.35294127
91.95050049	2.35294127
91.95463562	2.19607854
91.95863342	2.25490189
91.96274567	2.33333325
91.96274567	2.41176462
91.96687317	2.43137264
91.97101593	2.35294127
91.97498322	2.25490189
91.97498322	2.11764717
91.97910309	2.17647052
91.98323059	2.17647052
91.98738861	2.09803915
91.98738861	2.00000000
91.99150085	1.94117641
91.99549866	2.01960778
91.99961090	2.13725495
92.00375366	2.19607854
92.00788879	2.23529410
92.00788879	2.00000000
92.01185608	2.01960778
92.01598358	2.01960778
92.02015686	2.01960778
92.02015686	2.09803915
92.02426147	2.15686274
92.02822876	2.09803915
92.03250885	2.13725495
92.03250885	2.17647052
92.03648376	2.03921580
92.04061127	2.03921580
92.04460907	2.15686274
92.04875183	2.03921580
92.05287170	2.11764717
92.05287170	2.09803915
92.05698395	2.09803915
92.06098938	2.23529410
92.06511688	2.31372547
92.06511688	2.50980401
92.06925201	2.86274505
92.07337952	3.03921580
92.07750702	3.31372547
92.07750702	3.92156863
92.08152008	4.25490189
92.08560944	4.54901981
92.08560944	4.58823538
92.08975220	4.27450991
92.09387207	3.84313726
92.09796143	3.35294127
92.09796143	2.94117641
92.10196686	2.52941179
92.10608673	2.11764717
92.11024475	1.60784316
92.11024475	1.31372547
92.11437988	1.23529410
92.11849213	1.35294116
92.12248230	1.56862748
92.12248230	1.66666663
92.12660980	1.66666663
92.13072968	1.64705884
92.13072968	1.64705884
92.13473511	1.76470590
92.13884735	1.88235295
92.14297485	1.92156863
92.14297485	1.94117641
92.14713287	2.03921580
92.15125275	2.25490189
92.15524292	2.11764717
92.15524292	2.17647052
92.15933990	2.33333325
92.16346741	2.41176462
92.16759491	2.47058821
92.16759491	2.33333325
92.17160797	2.11764717
92.17574310	2.07843137
92.17574310	2.07843137
92.17984772	2.21568632
92.18397522	2.33333325
92.18812561	2.35294127
92.18812561	2.27450991
92.19213104	2.13725495
92.19623566	2.19607854
92.20035553	2.25490189
92.20035553	2.29411769
92.20449829	2.21568632
92.20850372	2.17647052
92.21260071	2.13725495
92.21260071	2.21568632
92.21672821	2.27450991
92.22084808	2.29411769
92.22084808	2.29411769
92.22480774	2.47058821
92.22893524	2.52941179
92.23307800	2.58823538
92.23307800	2.54901958
92.23725128	2.74509811
92.24118042	2.70588231
92.24545288	2.66666675
92.24545288	2.78431368
92.24950409	2.68627453
92.25362396	2.50980401
92.25774384	2.56862736
92.25774384	2.74509811
92.26172638	2.72549009
92.26584625	2.84313726
92.26584625	2.92156863
92.27000427	2.80392146
92.27412415	2.72549009
92.27824402	2.76470590
92.27824402	2.80392146
92.28224945	2.86274505
92.28631592	3.05882359
92.29043579	2.88235283
92.29043579	2.94117641
92.29456329	3.00000000
92.29857635	3.25490189
92.30271912	3.31372547
92.30682373	3.15686274
92.31101227	3.17647052
92.31101227	3.13725495
92.31497955	3.03921580
92.31909180	3.01960778
92.32324982	3.03921580
92.32324982	3.00000000
92.32736969	3.01960778
92.33151245	2.82352948
92.33547974	2.68627453
92.33547974	2.45098042
92.33961487	2.27450991
92.34375000	2.27450991
92.34780884	1.80392158
92.35180664	1.70588231
92.35592651	1.70588231
92.35592651	1.78431368
92.36008453	1.70588231
92.36421204	1.62745094
92.36832428	1.25490201
92.36832428	1.15686274
92.37250519	1.15686274
92.37647247	1.01960790
92.38059998	1.25490201
92.38059998	1.41176474
92.38475037	1.52941179
92.38874054	1.52941179
92.39287567	1.27450979
92.39700317	1.25490201
92.40111542	1.31372547
92.40111542	1.29411769
92.40511322	1.35294116
92.40921783	1.37254906
92.41358185	1.35294116
92.41358185	1.50980389
92.41745758	1.52941179
92.42148590	1.50980389
92.42562866	1.54901958
92.42562866	1.58823526
92.42973328	1.49019611
92.43380737	1.35294116
92.43788910	1.35294116
92.44189453	1.47058821
92.44610596	1.52941179
92.44610596	1.54901958
92.45025635	1.43137252
92.45437622	1.29411769
92.45851898	1.25490201
92.45851898	1.54901958
92.46247864	1.78431368
92.46659088	1.84313726
92.47071075	1.80392158
92.47071075	1.80392158
92.47472382	1.82352936
92.47884369	1.94117641
92.48297119	2.00000000
92.48711395	1.88235295
92.49123383	1.96078432
92.49123383	1.80392158
92.49523163	1.68627453
92.49950409	1.82352936
92.50349426	2.01960778
92.50349426	1.90196073
92.50762939	1.84313726
92.51158905	1.92156863
92.51573181	1.80392158
92.51573181	1.68627453
92.51989746	1.78431368
92.52399445	1.88235295
92.52812195	2.01960778
92.53210449	1.96078432
92.53621674	1.86274505
92.53621674	2.01960778
92.54034424	2.03921580
92.54446411	2.01960778
92.54868317	2.01960778
92.54868317	1.90196073
92.55261993	1.82352936
92.55673218	1.96078432
92.56084442	2.19607854
92.56084442	2.31372547
92.56485748	2.25490189
92.56896973	2.17647052
92.57310486	2.13725495
92.57723999	2.27450991
92.58137512	2.31372547
92.58137512	2.25490189
92.58549500	2.37254906
92.58948517	2.27450991
92.59362030	2.27450991
92.59362030	2.41176462
92.59771729	2.43137264
92.60171509	2.37254906
92.60584259	2.35294127
92.60584259	2.11764717
92.60999298	1.94117641
92.61412048	1.88235295
92.61412048	1.96078432
92.61808777	2.11764717
92.62223053	2.19607854
92.62647247	2.35294127
92.62647247	2.31372547
92.63050079	2.25490189
92.63449860	2.21568632
92.63862610	2.21568632
92.63862610	2.21568632
92.64273834	2.31372547
92.64684296	2.49019599
92.65099335	2.35294127
92.65099335	2.23529410
92.65498352	2.39215684
92.65908813	2.31372547
92.65908813	2.19607854
92.66320801	2.43137264
92.66733551	2.43137264
92.67149353	2.35294127
92.67149353	2.43137264
92.67549133	2.45098042
92.67958832	2.50980401
92.68373108	2.50980401
92.68373108	2.52941179
92.68786621	2.45098042
92.69184875	2.39215684
92.69599152	2.23529410
92.69599152	2.19607854
92.70013428	2.11764717
92.70426941	2.17647052
92.70426941	2.13725495
92.70825195	2.17647052
92.71249390	2.01960778
92.71649170	2.01960778
92.71649170	2.21568632
92.72058868	2.29411769
92.72470856	2.33333325
92.72871399	2.19607854
92.72871399	2.05882359
92.73284912	2.05882359
92.73697662	2.07843137
92.74110413	2.15686274
92.74110413	2.17647052
92.74510193	2.21568632
92.74920654	2.13725495
92.74920654	2.05882359
92.75336456	2.00000000
92.75748444	2.07843137
92.76161957	2.15686274
92.76161957	2.27450991
92.76561737	2.31372547
92.76975250	2.29411769
92.77385712	2.23529410
92.77385712	2.29411769
92.77785492	2.35294127
92.78197479	2.17647052
92.78607941	2.25490189
92.78607941	2.31372547
92.79020691	2.29411769
92.79433441	2.49019599
92.79433441	2.72549009
92.79843903	3.07843137
92.80245209	3.35294127
92.80660248	3.66666675
92.80660248	4.00000000
92.81073761	4.00000000
92.81486511	4.13725471
92.81885529	4.01960802
92.81885529	3.86274505
92.82295990	3.52941179
92.82710266	3.13725495
92.83124542	2.07843137
92.83522034	1.74509799
92.83949280	1.56862748
92.83949280	1.58823526
92.84349060	1.62745094
92.84750366	1.72549021
92.85166168	1.66666663
92.85166168	1.76470590
92.85563660	1.94117641
92.85988617	2.09803915
92.86401367	2.05882359
92.86401367	2.23529410
92.86811066	2.21568632
92.87210083	2.17647052
92.87622070	2.45098042
92.88033295	2.27450991
92.88449097	2.25490189
92.88449097	2.31372547
92.88848114	2.29411769
92.89260101	2.17647052
92.89671326	2.07843137
92.89671326	2.39215684
92.90086365	2.56862736
92.90484619	2.52941179
92.90892792	2.39215684
92.90892792	2.05882359
92.91304779	2.01960778
92.91717529	2.05882359
92.92133331	2.56862736
92.92544556	2.54901958
92.92944336	2.50980401
92.92944336	2.52941179
92.93357086	2.50980401
92.93773651	2.64705873
92.94182587	2.68627453
92.94182587	2.68627453
92.94588470	2.78431368
92.94992065	2.62745094
92.95402527	2.70588231
92.95402527	2.72549009
92.95803070	2.68627453
92.96219635	2.68627453
92.96647644	2.84313726
92.97040558	2.84313726
92.97453308	2.80392146
92.97453308	2.82352948
92.97853088	2.88235283
92.98267365	2.86274505
92.98681641	3.03921580
92.98681641	3.17647052
92.99092865	3.09803915
92.99497986	3.07843137
92.99908447	3.13725495
92.99908447	3.17647052
93.00321960	3.15686274
93.00734711	3.25490189
93.01146698	3.47058821
93.01544189	3.35294127
93.01959229	3.25490189
93.01959229	3.47058821
93.02371979	3.49019599
93.02784729	3.60784316
93.03184509	3.58823538
93.03184509	3.50980401
93.03592682	3.47058821
93.04004669	3.47058821
93.04419708	3.60784316
93.04419708	3.76470590
93.04821777	3.52941179
93.05244446	3.33333325
93.05646515	3.13725495
93.06058502	3.07843137
93.06471252	3.00000000
93.06471252	2.94117641
93.06869507	2.70588231
93.07283783	2.56862736
93.07695007	2.39215684
93.07695007	2.17647052
93.08110809	2.21568632
93.08507538	2.21568632
93.08921814	2.13725495
93.08921814	1.98039210
93.09333801	1.90196073
93.09741974	1.88235295
93.10141754	2.09803915
93.10556030	2.09803915
93.10968018	2.00000000
93.10968018	2.01960778
93.11383820	2.03921580
93.11796570	2.05882359
93.12208557	1.90196073
93.12208557	1.90196073
93.12608337	1.90196073
93.13021851	1.90196073
93.13434601	1.88235295
93.13434601	1.78431368
93.13845825	1.90196073
93.14248657	2.03921580
93.14248657	2.11764717
93.14658356	2.00000000
93.15072632	1.88235295
93.15485382	1.86274505
93.15485382	1.84313726
93.15882874	1.92156863
93.16295624	2.07843137
93.16707611	2.13725495
93.16707611	2.15686274
93.17121887	2.00000000
93.17522430	1.98039210
93.17944336	2.03921580
93.17944336	2.13725495
93.18344116	2.25490189
93.18760681	2.25490189
93.18760681	2.29411769
93.19158936	2.05882359
93.19572449	1.84313726
93.19983673	2.11764717
93.19983673	2.31372547
93.20392609	2.25490189
93.20811462	2.09803915
93.21209717	1.98039210
93.21209717	2.00000000
93.21621704	2.15686274
93.22032166	2.25490189
93.22444916	2.37254906
93.22444916	2.43137264
93.22844696	2.41176462
93.23258972	2.25490189
93.23258972	2.17647052
93.23670959	2.15686274
93.24084473	2.15686274
93.24496460	2.27450991
93.24496460	2.37254906
93.24894714	2.19607854
93.25307465	2.11764717
93.25722504	2.17647052
93.25722504	2.35294127
93.26136017	2.39215684
93.26548004	2.37254906
93.26949310	2.35294127
93.26949310	2.35294127
93.27359772	2.37254906
93.27773285	2.33333325
93.27773285	2.25490189
93.28170013	2.31372547
93.28582001	2.47058821
93.28994751	2.39215684
93.28994751	2.35294127
93.29407501	2.31372547
93.29823303	2.43137264
93.30221558	2.45098042
93.30221558	2.35294127
93.30634308	2.29411769
93.31047821	2.23529410
93.31459808	2.11764717
93.31459808	2.11764717
93.31858826	2.35294127
93.32270813	2.47058821
93.32270813	2.45098042
93.32682800	2.66666675
93.33099365	2.52941179
93.33509827	2.50980401
93.33509827	2.47058821
93.33908081	2.49019599
93.34323120	2.50980401
93.34732056	2.50980401
93.34732056	2.56862736
93.35144806	2.62745094
93.35544586	2.37254906
93.35961151	2.50980401
93.36371613	2.52941179
93.36782837	2.49019599
93.36782837	2.33333325
93.37181854	2.37254906
93.37596893	2.41176462
93.38008118	2.45098042
93.38008118	2.56862736
93.38423157	2.60784316
93.38822174	2.39215684
93.39247894	2.37254906
93.39247894	2.31372547
93.39645386	2.29411769
93.40061188	2.58823538
93.40472412	2.54901958
93.40867615	2.41176462
93.41279602	2.45098042
93.41279602	2.39215684
93.41691589	2.33333325
93.42106628	2.49019599
93.42519379	2.52941179
93.42519379	2.35294127
93.42916107	2.11764717
93.43330383	2.00000000
93.43750000	2.07843137
93.43750000	2.19607854
93.44136810	2.37254906
93.44546509	2.41176462
93.44962311	2.29411769
93.45381927	2.23529410
93.45796204	2.21568632
93.45796204	2.15686274
93.46192932	2.29411769
93.46605682	2.39215684
93.47016907	2.25490189
93.47016907	2.17647052
93.47429657	2.23529410
93.47843170	2.21568632
93.48244476	2.25490189
93.48244476	2.37254906
93.48657227	2.29411769
93.49067688	2.31372547
93.49481201	2.15686274
93.49879456	2.29411769
93.50292969	2.60784316
93.50292969	3.03921580
93.50708771	3.33333325
93.51119995	3.50980401
93.51521301	3.68627453
93.51521301	4.07843161
93.51948547	4.45098019
93.52346802	4.70588255
93.52759552	4.70588255
93.52759552	4.41176462
93.53156281	3.88235283
93.53569031	3.29411769
93.53981781	2.07843137
93.54394531	1.72549021
93.54809570	1.56862748
93.54809570	1.50980389
93.55208588	1.54901958
93.55621338	1.78431368
93.56033325	1.96078432
93.56033325	2.00000000
93.56446075	1.94117641
93.56845856	1.96078432
93.57257843	1.96078432
93.57257843	1.98039210
93.57670593	2.03921580
93.58087921	2.03921580
93.58496857	2.37254906
93.58893585	2.25490189
93.59309387	2.31372547
93.59309387	2.33333325
93.59719849	2.33333325
93.60131836	2.27450991
93.60543823	2.23529410
93.60543823	2.29411769
93.60947418	2.29411769
93.61358643	2.41176462
93.61775208	2.39215684
93.61775208	2.45098042
93.62174225	2.54901958
93.62581635	2.54901958
93.62995911	2.37254906
93.63409424	2.33333325
93.63821411	2.37254906
93.63821411	2.43137264
93.64223480	2.50980401
93.64633179	2.47058821
93.65044403	2.62745094
93.65044403	2.54901958
93.65458679	2.49019599
93.65853119	2.58823538
93.66265869	2.64705873
93.66265869	2.70588231
93.66677856	2.78431368
93.67092896	2.62745094
93.67092896	2.54901958
93.67494202	2.60784316
93.67903137	2.68627453
93.68316650	2.76470590
93.68316650	2.96078420
93.68730927	2.96078420
93.69146729	2.94117641
93.69545746	3.01960778
93.69545746	3.09803915
93.69959259	3.03921580
93.70372772	3.11764717
93.70784760	3.13725495
93.70784760	3.23529410
93.71182251	3.27450991
93.71594238	3.29411769
93.71594238	3.39215684
93.72002411	3.47058821
93.72415924	3.31372547
93.72827911	3.27450991
93.72827911	3.17647052
93.73242950	3.33333325
93.73643494	3.43137264
93.74052429	3.56862736
93.74052429	3.60784316
93.74466705	3.68627453
93.74871063	3.60784316
93.75281525	3.45098042
93.75281525	3.37254906
93.75695038	3.39215684
93.76108551	3.33333325
93.76108551	3.29411769
93.76509094	3.03921580
93.76921082	2.86274505
93.77334595	2.78431368
93.77334595	2.54901958
93.77745819	2.43137264
93.78140259	2.50980401
93.78552246	2.50980401
93.78552246	2.39215684
93.78964996	2.25490189
93.79379272	2.27450991
93.79792023	2.15686274
93.79792023	2.07843137
93.80190277	1.96078432
93.80604553	1.94117641
93.80604553	1.82352936
93.81021881	1.74509799
93.81433868	1.74509799
93.81845856	1.74509799
93.81845856	1.84313726
93.82243347	1.92156863
93.82656860	2.01960778
93.83074951	2.11764717
93.83074951	2.07843137
93.83471680	2.07843137
93.83882141	2.13725495
93.84294128	2.13725495
93.84294128	2.11764717
93.84705353	2.17647052
93.85118103	1.96078432
93.85118103	1.88235295
93.85518646	1.88235295
93.85942841	1.94117641
93.86342621	2.00000000
93.86342621	2.00000000
93.86755371	2.03921580
93.87157440	2.09803915
93.87568665	2.21568632
93.87568665	2.09803915
93.87980652	2.15686274
93.88395691	2.33333325
93.88807678	2.01960778
93.89208984	1.92156863
93.89617157	2.07843137
93.89617157	2.17647052
93.90029907	2.33333325
93.90445709	2.43137264
93.90850830	2.25490189
93.90850830	2.19607854
93.91250610	2.17647052
93.91665649	2.29411769
93.92076874	2.33333325
93.92076874	2.29411769
93.92479706	2.31372547
93.92890167	2.23529410
93.93305206	2.09803915
93.93719482	2.15686274
93.94132233	2.43137264
93.94132233	2.52941179
93.94544983	2.54901958
93.94943237	2.47058821
93.95353699	2.41176462
93.95353699	2.29411769
93.95765686	2.31372547
93.96160126	2.45098042
93.96573639	2.39215684
93.96573639	2.39215684
93.96984100	2.45098042
93.97401428	2.43137264
93.97813416	2.62745094
93.98213959	2.64705873
93.98641205	2.56862736
93.98641205	2.43137264
93.99040222	2.37254906
93.99458313	2.33333325
93.99870300	2.31372547
93.99870300	2.41176462
94.00267792	2.50980401
94.00682068	2.56862736
94.01096344	2.35294127
94.01096344	2.33333325
94.01490021	2.47058821
94.01907349	2.45098042
94.02320862	2.45098042
94.02733612	2.29411769
94.03140259	2.39215684
94.03140259	2.35294127
94.03539276	2.33333325
94.03952789	2.49019599
94.04366302	2.47058821
94.04366302	2.41176462
94.04779053	2.56862736
94.05179596	2.68627453
94.05591583	2.58823538
94.05591583	2.47058821
94.06008148	2.50980401
94.06420135	2.54901958
94.06833649	2.47058821
94.07246399	2.43137264
94.07637787	2.49019599
94.07637787	2.60784316
94.08060455	2.72549009
94.08469391	2.68627453
94.08870697	2.54901958
94.08870697	2.56862736
94.09278107	2.49019599
94.09692383	2.37254906
94.10105133	2.33333325
94.10105133	2.27450991
94.10505676	2.27450991
94.10926819	2.35294127
94.11332703	2.52941179
94.11744690	2.66666675
94.12158203	2.62745094
94.12158203	2.76470590
94.12555695	2.76470590
94.12969971	2.72549009
94.13381195	2.50980401
94.13381195	2.72549009
94.13795471	2.72549009
94.14192963	2.64705873
94.14605713	2.68627453
94.14605713	2.76470590
94.15019226	2.68627453
94.15433502	2.72549009
94.15842438	2.82352948
94.16242981	2.80392146
94.16654968	2.74509811
94.16654968	2.70588231
94.17070007	2.58823538
94.17481995	2.49019599
94.17881012	2.58823538
94.17881012	2.70588231
94.18292236	2.78431368
94.18708801	2.72549009
94.19120026	2.72549009
94.19120026	2.62745094
94.19519043	2.54901958
94.19945526	2.52941179
94.19945526	2.54901958
94.20345306	2.60784316
94.20758057	2.84313726
94.21170807	2.64705873
94.21170807	2.37254906
94.21566772	2.27450991
94.21979523	2.33333325
94.22392273	2.39215684
94.22392273	2.31372547
94.22804260	2.33333325
94.23207855	2.43137264
94.23620605	2.56862736
94.23620605	2.47058821
94.24030304	2.47058821
94.24443817	2.50980401
94.24443817	2.41176462
94.24845886	2.37254906
94.25254059	2.39215684
94.25669861	2.50980401
94.25669861	2.54901958
94.26083374	2.60784316
94.26494598	2.64705873
94.26895142	2.54901958
94.26895142	2.35294127
94.27307129	2.17647052
94.27720642	2.54901958
94.28129578	2.74509811
94.28129578	2.64705873
94.28542328	2.62745094
94.28942871	2.68627453
94.28942871	2.76470590
94.29356384	3.01960778
94.29769135	3.39215684
94.30179596	3.76470590
94.30179596	4.05882359
94.30580902	4.54901981
94.30993652	4.68627453
94.31406403	4.76470566
94.31406403	4.68627453
94.31820679	4.54901981
94.32218170	4.05882359
94.32645416	3.56862736
94.32645416	3.03921580
94.33046722	2.45098042
94.33457184	1.98039210
94.33457184	1.80392158
94.33857727	1.80392158
94.34266663	1.88235295
94.34679413	2.01960778
94.34679413	2.17647052
94.35092926	2.17647052
94.35493469	2.03921580
94.35903931	2.17647052
94.35903931	2.37254906
94.36313629	2.39215684
94.36733246	2.29411769
94.37145233	2.33333325
94.37145233	2.33333325
94.37543488	2.31372547
94.37955475	2.41176462
94.37955475	2.45098042
94.38370514	2.52941179
94.38783264	2.50980401
94.39197540	2.58823538
94.39197540	2.54901958
94.39593506	2.45098042
94.40006256	2.54901958
94.40419006	2.64705873
94.40419006	2.76470590
94.40808868	2.72549009
94.41236877	2.66666675
94.41638184	2.56862736
94.42059326	2.50980401
94.42472839	2.60784316
94.42472839	2.70588231
94.42868805	2.62745094
94.43280792	2.66666675
94.43695068	2.60784316
94.43695068	2.78431368
94.44107819	2.82352948
94.44507599	2.76470590
94.44917297	2.72549009
94.44917297	2.60784316
94.45335388	2.70588231
94.45746613	2.80392146
94.46148682	2.78431368
94.46544647	2.78431368
94.46962738	2.70588231
94.46962738	2.72549009
94.47373199	2.72549009
94.47787476	2.84313726
94.48206329	3.00000000
94.48206329	3.15686274
94.48603058	3.15686274
94.49020386	3.11764717
94.49430847	3.15686274
94.49430847	3.15686274
94.49841309	3.29411769
94.50239563	3.33333325
94.50653839	3.37254906
94.51068115	3.31372547
94.51477051	3.37254906
94.51477051	3.52941179
94.51879120	3.66666675
94.52291870	3.52941179
94.52703857	3.50980401
94.52703857	3.64705873
94.53109741	3.58823538
94.53510284	3.56862736
94.53946686	3.45098042
94.53946686	3.37254906
94.54343414	3.33333325
94.54757690	3.37254906
94.55169678	3.21568632
94.55567932	2.98039222
94.55982208	2.88235283
94.55982208	2.88235283
94.56394196	2.80392146
94.56806946	2.72549009
94.57222748	2.52941179
94.57222748	2.27450991
94.57616425	2.11764717
94.58029175	2.21568632
94.58444214	2.33333325
94.58444214	2.25490189
94.58844757	2.01960778
94.59251404	1.90196073
94.59666443	1.98039210
94.60079193	1.98039210
94.60492706	2.01960778
94.60492706	1.90196073
94.60891724	1.76470590
94.61302185	1.70588231
94.61719513	1.60784316
94.61719513	1.62745094
94.62129974	1.76470590
94.62541962	1.88235295
94.62940216	1.94117641
94.62940216	1.84313726
94.63355255	1.74509799
94.63768768	1.68627453
94.64183807	1.76470590
94.64577484	1.82352936
94.64991760	1.90196073
94.64991760	1.86274505
94.65405273	1.78431368
94.65813446	1.96078432
94.66213226	2.03921580
94.66213226	1.98039210
94.66640472	1.84313726
94.67044067	1.90196073
94.67455292	1.94117641
94.67455292	1.88235295
94.67853546	1.80392158
94.68265533	1.74509799
94.68678284	1.98039210
94.69092560	2.15686274
94.69503784	2.15686274
94.69503784	2.11764717
94.69902039	2.15686274
94.70321655	2.31372547
94.70731354	2.19607854
94.70731354	2.15686274
94.71144104	2.25490189
94.71541595	2.27450991
94.71953583	2.31372547
94.71953583	2.31372547
94.72366333	2.05882359
94.72779083	1.94117641
94.72779083	1.84313726
94.73180389	1.82352936
94.73593140	1.92156863
94.74004364	2.07843137
94.74004364	2.05882359
94.74420166	2.07843137
94.74811554	2.17647052
94.75244141	2.07843137
94.75244141	2.05882359
94.75643158	2.07843137
94.76053619	2.17647052
94.76469421	2.27450991
94.76469421	2.25490189
94.76867676	2.21568632
94.77279663	2.07843137
94.77279663	2.01960778
94.77690887	2.00000000
94.78100586	2.37254906
94.78513336	2.52941179
94.78513336	2.62745094
94.78913116	2.37254906
94.79328918	2.23529410
94.79740906	2.23529410
94.79740906	2.27450991
94.80151367	2.21568632
94.80552673	2.27450991
94.80966187	2.23529410
94.80966187	2.11764717
94.81378937	1.94117641
94.81793976	1.96078432
94.81793976	2.11764717
94.82193756	2.15686274
94.82602692	2.23529410
94.83018494	2.17647052
94.83018494	1.96078432
94.83432007	2.01960778
94.83843994	2.13725495
94.84241486	2.17647052
94.84241486	2.31372547
94.84658051	2.39215684
94.85066223	2.29411769
94.85485077	2.09803915
94.85485077	2.11764717
94.85885620	2.17647052
94.86296844	2.27450991
94.86296844	2.45098042
94.86710358	2.25490189
94.87119293	2.17647052
94.87531281	2.01960778
94.87531281	1.96078432
94.87944031	2.05882359
94.88343811	2.05882359
94.88756561	2.21568632
94.88756561	2.43137264
94.89171600	2.29411769
94.89566803	2.11764717
94.89979553	2.05882359
94.89979553	2.05882359
94.90393829	2.09803915
94.90802765	2.13725495
94.90802765	2.05882359
94.91203308	1.90196073
94.91616058	1.94117641
94.92049408	2.27450991
94.92049408	2.43137264
94.92442322	2.31372547
94.92842865	2.23529410
94.93254089	2.19607854
94.93254089	2.13725495
94.93665314	2.09803915
94.94079590	2.09803915
94.94493866	2.27450991
94.94892883	2.19607854
94.95307159	2.09803915
94.95307159	2.07843137
94.95718384	2.17647052
94.96131134	2.33333325
94.96543884	2.29411769
94.96543884	2.17647052
94.96940613	2.09803915
94.97359467	2.13725495
94.97762299	2.07843137
94.97762299	2.17647052
94.98168182	2.23529410
94.98582458	2.39215684
94.98987579	2.13725495
94.99404144	2.09803915
94.99822998	2.25490189
94.99822998	2.35294127
95.00217438	2.37254906
95.00643158	2.33333325
95.01040649	2.31372547
95.01040649	2.31372547
95.01455688	2.23529410
95.01856232	2.31372547
95.02266693	2.43137264
95.02266693	2.43137264
95.02677917	2.27450991
95.03096008	2.31372547
95.03507996	2.15686274
95.03907776	2.13725495
95.04318237	2.25490189
95.04318237	2.19607854
95.04731750	2.17647052
95.05146027	2.17647052
95.05554962	2.00000000
95.05554962	2.03921580
95.05953979	1.98039210
95.06368256	2.11764717
95.06781769	2.27450991
95.06781769	2.09803915
95.07180786	2.05882359
95.07597351	2.13725495
95.08003998	1.94117641
95.08418274	2.00000000
95.08831024	2.09803915
95.08831024	2.01960778
95.09239960	1.96078432
95.09640503	2.07843137
95.10052490	2.21568632
95.10052490	2.15686274
95.10467529	2.09803915
95.10868073	2.05882359
95.11278534	2.11764717
95.11278534	1.92156863
95.11692047	1.92156863
95.12104034	2.03921580
95.12517548	2.05882359
95.12915802	2.01960778
95.13343048	2.09803915
95.13343048	2.37254906
95.13742828	2.76470590
95.14159393	3.05882359
95.14553833	3.37254906
95.14553833	3.70588231
95.14967346	3.86274505
95.15383148	4.01960802
95.15790558	4.27450991
95.15790558	4.35294104
95.16191101	3.98039222
95.16603851	3.52941179
95.17015839	2.29411769
95.17428589	1.66666663
95.17841339	1.31372547
95.17841339	1.29411769
95.18241119	1.27450979
95.18654633	1.35294116
95.19065857	1.39215684
95.19065857	1.58823526
95.19480133	1.62745094
95.19879150	1.76470590
95.20294189	1.84313726
95.20294189	1.90196073
95.20703125	1.90196073
95.21118164	1.92156863
95.21530151	1.90196073
95.21939087	1.92156863
95.22338867	1.88235295
95.22338867	1.98039210
95.22751617	2.07843137
95.23168182	2.13725495
95.23565674	2.15686274
95.23565674	2.05882359
95.23977661	2.15686274
95.24392700	2.31372547
95.24803925	2.43137264
95.24803925	2.29411769
95.25202942	2.15686274
95.25614166	2.13725495
95.25614166	2.17647052
95.26026917	2.21568632
95.26444244	2.19607854
95.26854706	2.15686274
95.26854706	2.11764717
95.27252960	2.19607854
95.27665710	2.05882359
95.28072357	2.13725495
95.28072357	2.23529410
95.28485107	2.27450991
95.28884888	2.27450991
95.29299927	2.13725495
95.29299927	2.07843137
95.29714203	2.15686274
95.30124664	2.33333325
95.30124664	2.41176462
95.30542755	2.56862736
95.30941772	2.45098042
95.31352234	2.33333325
95.31352234	2.33333325
95.31766510	2.47058821
95.32179260	2.66666675
95.32577515	3.01960778
95.32577515	3.03921580
95.32989502	2.72549009
95.33403778	2.68627453
95.33816528	2.70588231
95.33816528	2.86274505
95.34210205	2.84313726
95.34635162	2.72549009
95.34635162	2.58823538
95.35034943	2.66666675
95.35449219	2.86274505
95.35864258	2.90196085
95.35864258	2.96078420
95.36262512	2.98039222
95.36677551	3.00000000
95.37089539	2.98039222
95.37089539	2.96078420
95.37503815	2.98039222
95.37902069	3.00000000
95.38316345	3.03921580
95.38316345	3.09803915
95.38729095	3.03921580
95.39143372	2.88235283
95.39143372	2.78431368
95.39540863	2.72549009
95.39952850	2.86274505
95.40360260	2.84313726
95.40360260	2.70588231
95.40771484	2.47058821
95.41172791	2.21568632
95.41587067	2.03921580
95.41587067	1.96078432
95.42001343	1.98039210
95.42411041	1.94117641
95.42823029	1.86274505
95.42823029	1.60784316
95.43241882	1.49019611
95.43639374	1.64705884
95.43639374	1.58823526
95.44052124	1.68627453
95.44466400	1.62745094
95.44879150	1.60784316
95.44879150	1.52941179
95.45278168	1.43137252
95.45689392	1.41176474
95.46101379	1.56862748
95.46101379	1.58823526
95.46516418	1.54901958
95.46912384	1.35294116
95.47332764	1.35294116
95.47731781	1.39215684
95.48153687	1.49019611
95.48153687	1.58823526
95.48544312	1.58823526
95.48963928	1.58823526
95.49378204	1.58823526
95.49378204	1.58823526
95.49790955	1.54901958
95.50190735	1.56862748
95.50601959	1.64705884
95.50601959	1.78431368
95.51013947	1.78431368
95.51430511	1.76470590
95.51840973	1.90196073
95.52239227	1.92156863
95.52651978	1.86274505
95.52651978	1.68627453
95.53063965	1.60784316
95.53476715	1.64705884
95.53888702	1.90196073
95.53888702	1.86274505
95.54290771	1.88235295
95.54704285	2.01960778
95.55115509	1.90196073
95.55115509	1.90196073
95.55514526	1.90196073
95.55940247	2.01960778
95.56340790	2.11764717
95.56754303	2.00000000
95.57167053	1.96078432
95.57167053	1.90196073
95.57566071	1.92156863
95.57977295	2.01960778
95.58389282	2.11764717
95.58389282	2.01960778
95.58805084	2.03921580
95.59202576	1.98039210
95.59614563	1.94117641
95.59614563	1.94117641
95.60031128	2.01960778
95.60442352	2.15686274
95.60855865	2.21568632
95.61256409	2.25490189
95.61666107	2.19607854
95.61666107	2.11764717
95.62078094	2.15686274
95.62493896	2.15686274
95.62905121	2.17647052
95.62905121	2.21568632
95.63302612	2.21568632
95.63714600	2.19607854
95.64130402	2.31372547
95.64130402	2.35294127
95.64542389	2.25490189
95.64940643	2.11764717
95.65351105	2.13725495
95.65763855	2.23529410
95.66176605	2.37254906
95.66176605	2.35294127
95.66577148	2.29411769
95.66990662	2.09803915
95.67403412	2.09803915
95.67403412	2.09803915
95.67815399	2.21568632
95.68214417	2.25490189
95.68640900	2.19607854
95.68640900	2.17647052
95.69039917	2.23529410
95.69452667	2.21568632
95.69866180	2.37254906
95.70265198	2.39215684
95.70678711	2.54901958
95.70678711	2.45098042
95.71092987	2.27450991
95.71506500	2.35294127
95.71901703	2.37254906
95.71901703	2.29411769
95.72313690	2.29411769
95.72726440	2.35294127
95.73141479	2.31372547
95.73141479	2.25490189
95.73540497	2.17647052
95.73953247	2.19607854
95.74364471	2.21568632
95.74771118	2.27450991
95.75191498	2.09803915
95.75191498	2.33333325
95.75588989	2.54901958
95.76002502	2.64705873
95.76419830	2.56862736
95.76419830	2.43137264
95.76828766	2.49019599
95.77241516	2.43137264
95.77640533	2.45098042
95.77640533	2.27450991
95.78050995	2.39215684
95.78463745	2.43137264
95.78463745	2.41176462
95.78863525	2.33333325
95.79278564	2.23529410
95.79692078	2.23529410
95.79692078	2.25490189
95.80101776	2.27450991
95.80513763	2.29411769
95.80915833	2.35294127
95.80915833	2.43137264
95.81341553	2.37254906
95.81740570	2.25490189
95.82154083	2.29411769
95.82154083	2.21568632
95.82554626	2.25490189
95.82965088	2.33333325
95.82965088	2.43137264
95.83379364	2.49019599
95.83792114	2.54901958
95.84201050	2.39215684
95.84201050	2.45098042
95.84600830	2.56862736
95.85013580	2.60784316
95.85427856	2.47058821
95.85427856	2.37254906
95.85842133	2.41176462
95.86238098	2.54901958
95.86653137	2.56862736
95.86653137	2.49019599
95.87065125	2.33333325
95.87479401	2.35294127
95.87479401	2.52941179
95.87879181	2.66666675
95.88289642	2.50980401
95.88697052	2.41176462
95.88697052	2.33333325
95.89115906	2.27450991
95.89528656	2.27450991
95.89943695	2.35294127
95.89943695	2.37254906
95.90338135	2.29411769
95.90750122	2.21568632
95.91163635	2.09803915
95.91163635	1.98039210
95.91564941	2.05882359
95.91973114	2.11764717
95.91973114	2.17647052
95.92384338	2.21568632
95.92803955	2.07843137
95.93215942	1.92156863
95.93215942	1.98039210
95.93613434	2.17647052
95.94026947	2.27450991
95.94438934	2.25490189
95.94438934	2.33333325
95.94841766	2.29411769
95.95254517	2.15686274
95.95664215	2.17647052
95.96076202	2.23529410
95.96479797	2.23529410
95.96479797	2.27450991
95.96880341	2.25490189
95.97295380	2.17647052
95.97708893	2.21568632
95.97708893	2.45098042
95.98129272	2.62745094
95.98526764	2.90196085
95.98925781	3.21568632
95.98925781	3.47058821
95.99342346	3.86274505
95.99766541	4.11764717
96.00178528	4.50980377
96.00577545	4.45098019
96.00988770	3.98039222
96.00988770	3.54901958
96.01403046	3.01960778
96.01815033	2.33333325
96.02228546	1.84313726
96.02228546	1.64705884
96.02640533	1.50980389
96.03037262	1.33333337
96.03450775	1.37254906
96.03450775	1.45098042
96.03862762	1.66666663
96.04267120	1.90196073
96.04674530	2.07843137
96.05086517	1.94117641
96.05501556	1.88235295
96.05501556	1.84313726
96.05899048	1.90196073
96.06312561	1.98039210
96.06726074	2.09803915
96.06726074	2.01960778
96.07138824	2.03921580
96.07540894	1.94117641
96.07949829	2.07843137
96.07949829	2.31372547
96.08364105	2.43137264
96.08776093	2.43137264
96.09181213	2.19607854
96.09582520	2.29411769
96.09996796	2.47058821
96.09996796	2.56862736
96.10408783	2.66666675
96.10823059	2.58823538
96.11239624	2.64705873
96.11239624	2.41176462
96.11638641	2.25490189
96.12049866	2.49019599
96.12462616	2.60784316
96.12462616	2.66666675
96.12876129	2.60784316
96.13274384	2.50980401
96.13687897	2.49019599
96.14101410	2.70588231
96.14513397	2.82352948
96.14513397	2.68627453
96.14910889	2.58823538
96.15332031	2.62745094
96.15731812	2.56862736
96.15731812	2.62745094
96.16145325	2.70588231
96.16545868	2.78431368
96.16960907	2.86274505
96.16960907	2.88235283
96.17375183	2.82352948
96.17788696	2.80392146
96.18200684	3.39215684
96.18598938	3.41176462
96.19010162	3.31372547
96.19010162	3.23529410
96.19425964	3.29411769
96.19838715	3.41176462
96.20241547	3.47058821
96.20241547	3.54901958
96.20651245	3.50980401
96.21061707	3.43137264
96.21471405	3.43137264
96.21471405	3.52941179
96.21871948	3.58823538
96.22283936	3.62745094
96.22702026	3.82352948
96.23114014	3.60784316
96.23527527	3.41176462
96.23527527	3.37254906
96.23938751	3.41176462
96.24339294	3.41176462
96.24750519	3.31372547
96.24750519	3.11764717
96.25163269	2.92156863
96.25560760	2.74509811
96.25972748	2.78431368
96.25972748	2.86274505
96.26392365	2.82352948
96.26803589	2.54901958
96.27214813	2.05882359
96.27612305	2.03921580
96.28034973	2.03921580
96.28034973	2.05882359
96.28434753	2.07843137
96.28846741	1.90196073
96.29251099	1.64705884
96.29251099	1.54901958
96.29661560	1.56862748
96.30072021	1.78431368
96.30485535	1.80392158
96.30485535	1.68627453
96.30880737	1.56862748
96.31298828	1.52941179
96.31298828	1.62745094
96.31713867	1.80392158
96.32127380	1.82352936
96.32540131	1.80392158
96.32540131	1.84313726
96.32938385	1.80392158
96.33351135	1.90196073
96.33764648	1.98039210
96.33764648	2.09803915
96.34174347	2.07843137
96.34574127	2.11764717
96.34986877	2.05882359
96.34986877	1.96078432
96.35401917	1.88235295
96.35815430	1.78431368
96.35815430	1.92156863
96.36212158	2.17647052
96.36637878	2.19607854
96.37038422	2.15686274
96.37038422	2.07843137
96.37452698	2.07843137
96.37866211	2.09803915
96.38263702	2.11764717
96.38263702	2.37254906
96.38673401	2.43137264
96.39087677	2.33333325
96.39502716	2.09803915
96.39502716	2.11764717
96.39901733	2.21568632
96.40312195	2.23529410
96.40312195	2.41176462
96.40724182	2.50980401
96.41136932	2.29411769
96.41551208	2.23529410
96.41551208	2.37254906
96.41951752	2.47058821
96.42361450	2.47058821
96.42776489	2.58823538
96.42776489	2.50980401
96.43190002	2.41176462
96.43587494	2.33333325
96.44000244	2.39215684
96.44000244	2.50980401
96.44412994	2.66666675
96.44828033	2.62745094
96.44828033	2.49019599
96.45240021	2.43137264
96.45637512	2.50980401
96.46053314	2.72549009
96.46053314	2.94117641
96.46461487	2.86274505
96.46873474	2.58823538
96.47274017	2.56862736
96.47274017	2.54901958
96.47687531	2.60784316
96.48098755	2.64705873
96.48510742	2.76470590
96.48908997	2.60784316
96.49327850	2.50980401
96.49327850	2.52941179
96.49727631	2.60784316
96.50152588	2.64705873
96.50565338	2.66666675
96.50565338	2.58823538
96.50963593	2.43137264
96.51379395	2.31372547
96.51789856	2.23529410
96.51789856	2.35294127
96.52202606	2.39215684
96.52600861	2.62745094
96.53011322	2.58823538
96.53424072	2.56862736
96.53836060	2.58823538
96.53836060	2.62745094
96.54241180	2.60784316
96.54649353	2.66666675
96.55063629	2.62745094
96.55063629	2.43137264
96.55475616	2.50980401
96.55877686	2.39215684
96.56288147	2.54901958
96.56288147	2.70588231
96.56700134	2.76470590
96.57114410	2.78431368
96.57527161	2.43137264
96.57939911	2.64705873
96.58337402	2.58823538
96.58337402	2.50980401
96.58752441	2.37254906
96.59158325	2.33333325
96.59571075	2.37254906
96.59571075	2.43137264
96.59970856	2.45098042
96.60386658	2.56862736
96.60800171	2.52941179
96.60800171	2.35294127
96.61196136	2.54901958
96.61610413	2.56862736
96.62039948	2.66666675
96.62435913	2.68627453
96.62851715	2.70588231
96.62851715	2.62745094
96.63250732	2.62745094
96.63665009	2.68627453
96.64074707	2.68627453
96.64074707	2.54901958
96.64489746	2.49019599
96.64889526	2.37254906
96.65298462	2.43137264
96.65298462	2.43137264
96.65711212	2.62745094
96.66123962	2.72549009
96.66539001	2.76470590
96.66940308	2.60784316
96.67349243	2.60784316
96.67349243	2.64705873
96.67763519	2.74509811
96.68177032	2.56862736
96.68589020	2.52941179
96.68589020	2.52941179
96.68988037	2.49019599
96.69399261	2.78431368
96.69815826	2.76470590
96.69815826	2.80392146
96.70215607	2.84313726
96.70639038	2.90196085
96.71038055	2.68627453
96.71448517	2.68627453
96.71861267	2.78431368
96.71861267	2.84313726
96.72261810	2.82352948
96.72675323	2.80392146
96.73087311	2.56862736
96.73087311	2.41176462
96.73499298	2.45098042
96.73899841	2.54901958
96.74311829	2.56862736
96.74311829	2.54901958
96.74726105	2.54901958
96.75138855	2.41176462
96.75551605	2.49019599
96.75948334	2.54901958
96.76366425	2.52941179
96.76366425	2.70588231
96.76776123	2.80392146
96.77188110	2.76470590
96.77593994	2.60784316
96.77593994	2.70588231
96.77998352	2.72549009
96.78411102	2.64705873
96.78823090	2.52941179
96.78823090	2.56862736
96.79239655	2.62745094
96.79635620	2.66666675
96.80048370	2.54901958
96.80464172	2.60784316
96.80875397	2.58823538
96.80875397	2.64705873
96.81272888	2.94117641
96.81687164	3.11764717
96.82097626	3.39215684
96.82097626	3.74509811
96.82511902	4.05882359
96.82909393	4.35294104
96.83337402	4.58823538
96.83337402	4.94117641
96.83737946	4.98039198
96.84143066	4.96078444
96.84143066	4.64705896
96.84542847	4.21568632
96.84958649	3.52941179
96.85369873	3.01960778
96.85369873	2.68627453
96.85784912	2.27450991
96.86199951	1.94117641
96.86599731	1.98039210
96.86599731	1.96078432
96.87010193	1.80392158
96.87425232	1.82352936
96.87837219	2.03921580
96.87837219	2.21568632
96.88236237	2.35294127
96.88650513	2.35294127
96.88650513	2.29411769
96.89060211	2.35294127
96.89475250	2.47058821
96.89887238	2.47058821
96.89887238	2.70588231
96.90280914	2.92156863
96.90692902	2.96078420
96.91106415	2.70588231
96.91106415	2.64705873
96.91519928	2.58823538
96.91934204	2.66666675
96.92333221	2.70588231
96.92333221	2.96078420
